index,time stamp,s1,s2,open,close,thumb,others
0,2023-08-19 16:47:03.066,-2,-2.0,1,0,0,0
1,2023-08-19 16:47:03.068,0,0,1,0,0,0
2,2023-08-19 16:47:03.068,0,0.0,1,0,0,0
3,2023-08-19 16:47:03.068,0,-1.0,1,0,0,0
4,2023-08-19 16:47:03.068,-1,1.0,1,0,0,0
5,2023-08-19 16:47:03.068,1,0.0,1,0,0,0
6,2023-08-19 16:47:03.068,-1,0.0,1,0,0,0
7,2023-08-19 16:47:03.068,0,0.0,1,0,0,0
8,2023-08-19 16:47:03.068,0,0.0,1,0,0,0
9,2023-08-19 16:47:03.068,0,-3.0,1,0,0,0
10,2023-08-19 16:47:03.068,-1,5.0,1,0,0,0
11,2023-08-19 16:47:03.068,5,-3.0,1,0,0,0
12,2023-08-19 16:47:03.068,9,18.0,1,0,0,0
13,2023-08-19 16:47:03.266,-27,-80.0,1,0,0,0
14,2023-08-19 16:47:03.467,12,135.0,1,0,0,0
15,2023-08-19 16:47:03.668,46,-110.0,1,0,0,0
16,2023-08-19 16:47:03.868,-78,31.0,1,0,0,0
17,2023-08-19 16:47:04.069,43,16.0,1,0,0,0
18,2023-08-19 16:47:04.265,12,-9.0,1,0,0,0
19,2023-08-19 16:47:04.465,-30,-11.0,1,0,0,0
20,2023-08-19 16:47:04.670,12,12.0,1,0,0,0
21,2023-08-19 16:47:04.871,6,2.0,1,0,0,0
22,2023-08-19 16:47:05.073,-7,-10.0,1,0,0,0
23,2023-08-19 16:47:05.278,-2,4.0,1,0,0,0
24,2023-08-19 16:47:05.478,5,4.0,1,0,0,0
25,2023-08-19 16:47:05.679,-1,-6.0,1,0,0,0
26,2023-08-19 16:47:05.880,-2,2.0,1,0,0,0
27,2023-08-19 16:47:06.081,1,0.0,1,0,0,0
28,2023-08-19 16:47:06.278,1,0.0,1,0,0,0
29,2023-08-19 16:47:06.481,-3,-2.0,1,0,0,0
30,2023-08-19 16:47:06.681,2,3.0,1,0,0,0
31,2023-08-19 16:47:06.882,0,-1.0,1,0,0,0
32,2023-08-19 16:47:07.083,-1,0.0,1,0,0,0
33,2023-08-19 16:47:07.285,1,0.0,1,0,0,0
34,2023-08-19 16:47:07.485,-1,0.0,1,0,0,0
35,2023-08-19 16:47:07.682,2,-1.0,1,0,0,0
36,2023-08-19 16:47:07.887,-3,1.0,1,0,0,0
37,2023-08-19 16:47:08.082,3,-1.0,1,0,0,0
38,2023-08-19 16:47:08.283,-3,0.0,1,0,0,0
39,2023-08-19 16:47:08.489,1,0.0,1,0,0,0
40,2023-08-19 16:47:08.689,0,0.0,1,0,0,0
41,2023-08-19 16:47:08.884,0,1.0,1,0,0,0
42,2023-08-19 16:47:09.087,0,-2.0,1,0,0,0
43,2023-08-19 16:47:09.277,0,2.0,1,0,0,0
44,2023-08-19 16:47:09.485,1,-1.0,1,0,0,0
45,2023-08-19 16:47:09.689,0,1.0,1,0,0,0
46,2023-08-19 16:47:09.896,0,-1.0,1,0,0,0
47,2023-08-19 16:47:10.094,0,0.0,1,0,0,0
48,2023-08-19 16:47:10.294,0,1.0,1,0,0,0
49,2023-08-19 16:47:10.499,0,-2.0,1,0,0,0
50,2023-08-19 16:47:10.691,-1,1.0,1,0,0,0
51,2023-08-19 16:47:10.897,1,0.0,1,0,0,0
52,2023-08-19 16:47:11.094,-1,0.0,1,0,0,0
53,2023-08-19 16:47:11.298,1,0.0,1,0,0,0
54,2023-08-19 16:47:11.490,0,0.0,1,0,0,0
55,2023-08-19 16:47:11.704,0,0.0,1,0,0,0
56,2023-08-19 16:47:11.890,0,0.0,1,0,0,0
57,2023-08-19 16:47:12.094,0,0.0,1,0,0,0
58,2023-08-19 16:47:12.298,1,0.0,1,0,0,0
59,2023-08-19 16:47:12.501,0,0.0,1,0,0,0
60,2023-08-19 16:47:12.707,0,0.0,1,0,0,0
61,2023-08-19 16:47:12.908,0,-1.0,1,0,0,0
62,2023-08-19 16:47:13.101,0,1.0,1,0,0,0
63,2023-08-19 16:47:13.309,0,-1.0,1,0,0,0
64,2023-08-19 16:47:13.507,0,1.0,1,0,0,0
65,2023-08-19 16:47:13.706,0,0.0,1,0,0,0
66,2023-08-19 16:47:13.898,0,0.0,1,0,0,0
67,2023-08-19 16:47:14.106,0,0.0,1,0,0,0
68,2023-08-19 16:47:14.312,0,0.0,1,0,0,0
69,2023-08-19 16:47:14.502,0,0.0,1,0,0,0
70,2023-08-19 16:47:14.707,1,0.0,1,0,0,0
71,2023-08-19 16:47:14.914,-1,0.0,1,0,0,0
72,2023-08-19 16:47:15.120,0,0.0,1,0,0,0
73,2023-08-19 16:47:15.315,0,0.0,1,0,0,0
74,2023-08-19 16:47:15.521,0,0.0,1,0,0,0
75,2023-08-19 16:47:15.712,0,-1.0,1,0,0,0
76,2023-08-19 16:47:15.918,0,1.0,1,0,0,0
77,2023-08-19 16:47:16.124,0,-1.0,1,0,0,0
78,2023-08-19 16:47:16.315,0,0.0,1,0,0,0
79,2023-08-19 16:47:16.523,0,0.0,1,0,0,0
80,2023-08-19 16:47:16.722,0,0.0,1,0,0,0
81,2023-08-19 16:47:16.922,0,0.0,1,0,0,0
82,2023-08-19 16:47:17.117,0,0.0,1,0,0,0
83,2023-08-19 16:47:17.320,0,0.0,1,0,0,0
84,2023-08-19 16:47:17.526,0,0.0,1,0,0,0
85,2023-08-19 16:47:17.718,0,0.0,1,0,0,0
86,2023-08-19 16:47:17.925,0,0.0,1,0,0,0
87,2023-08-19 16:47:18.130,0,-1.0,1,0,0,0
88,2023-08-19 16:47:18.320,0,1.0,1,0,0,0
89,2023-08-19 16:47:18.530,0,-2.0,1,0,0,0
90,2023-08-19 16:47:18.719,0,2.0,1,0,0,0
91,2023-08-19 16:47:18.926,0,-2.0,1,0,0,0
92,2023-08-19 16:47:19.133,0,2.0,1,0,0,0
93,2023-08-19 16:47:19.327,0,0.0,1,0,0,0
94,2023-08-19 16:47:19.532,0,0.0,1,0,0,0
95,2023-08-19 16:47:19.738,0,0.0,1,0,0,0
96,2023-08-19 16:47:19.933,0,0.0,1,0,0,0
97,2023-08-19 16:47:20.139,0,0.0,1,0,0,0
98,2023-08-19 16:47:20.337,0,0.0,1,0,0,0
99,2023-08-19 16:47:20.540,0,0.0,1,0,0,0
100,2023-08-19 16:47:20.743,0,0.0,1,0,0,0
101,2023-08-19 16:47:20.932,0,0.0,1,0,0,0
102,2023-08-19 16:47:21.145,0,0.0,1,0,0,0
103,2023-08-19 16:47:21.346,0,-1.0,1,0,0,0
104,2023-08-19 16:47:21.540,1,2.0,1,0,0,0
105,2023-08-19 16:47:21.745,0,-2.0,1,0,0,0
106,2023-08-19 16:47:21.946,0,0.0,1,0,0,0
107,2023-08-19 16:47:22.147,0,0.0,1,0,0,0
108,2023-08-19 16:47:22.338,0,-1.0,1,0,0,0
109,2023-08-19 16:47:22.547,-1,0.0,1,0,0,0
110,2023-08-19 16:47:22.749,1,0.0,1,0,0,0
111,2023-08-19 16:47:22.940,0,0.0,1,0,0,0
112,2023-08-19 16:47:23.143,0,0.0,1,0,0,0
113,2023-08-19 16:47:23.351,0,0.0,1,0,0,0
114,2023-08-19 16:47:23.543,0,0.0,1,0,0,0
115,2023-08-19 16:47:23.749,0,0.0,1,0,0,0
116,2023-08-19 16:47:23.955,0,0.0,1,0,0,0
117,2023-08-19 16:47:24.147,0,0.0,1,0,0,0
118,2023-08-19 16:47:24.354,0,0.0,1,0,0,0
119,2023-08-19 16:47:24.561,1,1.0,1,0,0,0
120,2023-08-19 16:47:24.754,-1,-1.0,1,0,0,0
121,2023-08-19 16:47:24.960,0,1.0,1,0,0,0
122,2023-08-19 16:47:25.152,0,0.0,1,0,0,0
123,2023-08-19 16:47:25.362,0,0.0,1,0,0,0
124,2023-08-19 16:47:25.564,-1,0.0,1,0,0,0
125,2023-08-19 16:47:25.765,1,0.0,1,0,0,0
126,2023-08-19 16:47:25.964,0,0.0,1,0,0,0
127,2023-08-19 16:47:26.166,0,0.0,1,0,0,0
128,2023-08-19 16:47:26.354,0,0.0,1,0,0,0
129,2023-08-19 16:47:26.561,0,0.0,1,0,0,0
130,2023-08-19 16:47:26.762,0,0.0,1,0,0,0
131,2023-08-19 16:47:26.964,0,0.0,1,0,0,0
132,2023-08-19 16:47:27.170,1,1.0,1,0,0,0
133,2023-08-19 16:47:27.365,0,-1.0,1,0,0,0
134,2023-08-19 16:47:27.570,0,1.0,1,0,0,0
135,2023-08-19 16:47:27.770,0,0.0,1,0,0,0
136,2023-08-19 16:47:27.967,0,0.0,1,0,0,0
137,2023-08-19 16:47:28.172,-1,0.0,1,0,0,0
138,2023-08-19 16:47:28.364,0,0.0,1,0,0,0
139,2023-08-19 16:47:28.570,0,0.0,1,0,0,0
140,2023-08-19 16:47:28.772,0,0.0,1,0,0,0
141,2023-08-19 16:47:28.971,1,0.0,1,0,0,0
142,2023-08-19 16:47:29.167,-1,0.0,1,0,0,0
143,2023-08-19 16:47:29.370,0,0.0,1,0,0,0
144,2023-08-19 16:47:29.579,0,0.0,1,0,0,0
145,2023-08-19 16:47:29.783,0,0.0,1,0,0,0
146,2023-08-19 16:47:29.978,0,-1.0,1,0,0,0
147,2023-08-19 16:47:30.184,0,2.0,1,0,0,0
148,2023-08-19 16:47:30.373,0,-2.0,1,0,0,0
149,2023-08-19 16:47:30.585,0,1.0,1,0,0,0
150,2023-08-19 16:47:30.787,0,0.0,1,0,0,0
151,2023-08-19 16:47:30.979,0,0.0,1,0,0,0
152,2023-08-19 16:47:31.185,0,0.0,1,0,0,0
153,2023-08-19 16:47:31.377,0,0.0,1,0,0,0
154,2023-08-19 16:47:31.589,0,0.0,1,0,0,0
155,2023-08-19 16:47:31.790,0,0.0,1,0,0,0
156,2023-08-19 16:47:31.991,0,0.0,1,0,0,0
157,2023-08-19 16:47:32.191,-1,0.0,1,0,0,0
158,2023-08-19 16:47:32.383,1,1.0,1,0,0,0
159,2023-08-19 16:47:32.592,-1,-1.0,1,0,0,0
160,2023-08-19 16:47:32.793,0,0.0,1,0,0,0
161,2023-08-19 16:47:32.985,0,0.0,1,0,0,0
162,2023-08-19 16:47:33.194,1,0.0,1,0,0,0
163,2023-08-19 16:47:33.386,-1,0.0,1,0,0,0
164,2023-08-19 16:47:33.594,1,0.0,1,0,0,0
165,2023-08-19 16:47:33.790,0,0.0,1,0,0,0
166,2023-08-19 16:47:33.988,0,0.0,1,0,0,0
167,2023-08-19 16:47:34.195,0,0.0,1,0,0,0
168,2023-08-19 16:47:34.403,0,0.0,1,0,0,0
169,2023-08-19 16:47:34.604,0,0.0,1,0,0,0
170,2023-08-19 16:47:34.805,0,0.0,1,0,0,0
171,2023-08-19 16:47:34.994,0,0.0,1,0,0,0
172,2023-08-19 16:47:35.202,0,0.0,1,0,0,0
173,2023-08-19 16:47:35.394,0,0.0,1,0,0,0
174,2023-08-19 16:47:35.602,0,0.0,1,0,0,0
175,2023-08-19 16:47:35.808,0,0.0,1,0,0,0
176,2023-08-19 16:47:36.001,0,0.0,1,0,0,0
177,2023-08-19 16:47:36.209,0,0.0,1,0,0,0
178,2023-08-19 16:47:36.397,0,0.0,1,0,0,0
179,2023-08-19 16:47:36.602,0,0.0,1,0,0,0
180,2023-08-19 16:47:36.809,0,0.0,1,0,0,0
181,2023-08-19 16:47:37.002,0,0.0,1,0,0,0
182,2023-08-19 16:47:37.207,0,0.0,1,0,0,0
183,2023-08-19 16:47:37.414,0,0.0,1,0,0,0
184,2023-08-19 16:47:37.608,0,0.0,1,0,0,0
185,2023-08-19 16:47:37.815,0,-1.0,1,0,0,0
186,2023-08-19 16:47:38.006,0,1.0,1,0,0,0
187,2023-08-19 16:47:38.211,0,0.0,1,0,0,0
188,2023-08-19 16:47:38.403,0,0.0,1,0,0,0
189,2023-08-19 16:47:38.610,0,0.0,1,0,0,0
190,2023-08-19 16:47:38.819,0,0.0,1,0,0,0
191,2023-08-19 16:47:39.019,0,0.0,1,0,0,0
192,2023-08-19 16:47:39.216,0,0.0,1,0,0,0
193,2023-08-19 16:47:39.425,0,0.0,1,0,0,0
194,2023-08-19 16:47:39.611,0,0.0,1,0,0,0
195,2023-08-19 16:47:39.825,0,0.0,1,0,0,0
196,2023-08-19 16:47:40.025,1,1.0,1,0,0,0
197,2023-08-19 16:47:40.219,-1,-2.0,1,0,0,0
198,2023-08-19 16:47:40.428,1,2.0,1,0,0,0
199,2023-08-19 16:47:40.620,0,0.0,1,0,0,0
200,2023-08-19 16:47:40.829,0,0.0,1,0,0,0
201,2023-08-19 16:47:41.019,0,0.0,1,0,0,0
202,2023-08-19 16:47:41.228,0,0.0,1,0,0,0
203,2023-08-19 16:47:41.432,0,0.0,1,0,0,0
204,2023-08-19 16:47:41.631,0,0.0,1,0,0,0
205,2023-08-19 16:47:41.832,0,0.0,1,0,0,0
206,2023-08-19 16:47:42.022,0,0.0,1,0,0,0
207,2023-08-19 16:47:42.231,0,0.0,1,0,0,0
208,2023-08-19 16:47:42.432,0,0.0,1,0,0,0
209,2023-08-19 16:47:42.631,0,0.0,1,0,0,0
210,2023-08-19 16:47:42.837,0,1.0,1,0,0,0
211,2023-08-19 16:47:43.035,0,-1.0,1,0,0,0
212,2023-08-19 16:47:43.227,0,0.0,1,0,0,0
213,2023-08-19 16:47:43.435,0,0.0,1,0,0,0
214,2023-08-19 16:47:43.626,0,0.0,1,0,0,0
215,2023-08-19 16:47:43.835,0,0.0,1,0,0,0
216,2023-08-19 16:47:44.044,0,0.0,1,0,0,0
217,2023-08-19 16:47:44.235,0,0.0,1,0,0,0
218,2023-08-19 16:47:44.440,0,0.0,1,0,0,0
219,2023-08-19 16:47:44.647,-1,0.0,1,0,0,0
220,2023-08-19 16:47:44.839,1,0.0,1,0,0,0
221,2023-08-19 16:47:45.043,-1,0.0,1,0,0,0
222,2023-08-19 16:47:45.247,0,0.0,1,0,0,0
223,2023-08-19 16:47:45.437,0,0.0,1,0,0,0
224,2023-08-19 16:47:45.645,0,0.0,1,0,0,0
225,2023-08-19 16:47:45.852,0,0.0,1,0,0,0
226,2023-08-19 16:47:46.041,0,0.0,1,0,0,0
227,2023-08-19 16:47:46.248,0,0.0,1,0,0,0
228,2023-08-19 16:47:46.454,0,0.0,1,0,0,0
229,2023-08-19 16:47:46.643,0,0.0,1,0,0,0
230,2023-08-19 16:47:46.850,0,0.0,1,0,0,0
231,2023-08-19 16:47:47.043,0,0.0,1,0,0,0
232,2023-08-19 16:47:47.250,0,0.0,1,0,0,0
233,2023-08-19 16:47:47.457,0,0.0,1,0,0,0
234,2023-08-19 16:47:47.646,0,0.0,1,0,0,0
235,2023-08-19 16:47:47.851,0,0.0,1,0,0,0
236,2023-08-19 16:47:48.058,0,0.0,1,0,0,0
237,2023-08-19 16:47:48.249,0,0.0,1,0,0,0
238,2023-08-19 16:47:48.460,0,0.0,1,0,0,0
239,2023-08-19 16:47:48.658,1,0.0,1,0,0,0
240,2023-08-19 16:47:48.865,-1,-1.0,1,0,0,0
241,2023-08-19 16:47:49.056,1,2.0,1,0,0,0
242,2023-08-19 16:47:49.264,-1,-2.0,1,0,0,0
243,2023-08-19 16:47:49.459,0,1.0,1,0,0,0
244,2023-08-19 16:47:49.662,0,0.0,1,0,0,0
245,2023-08-19 16:47:49.868,0,0.0,1,0,0,0
246,2023-08-19 16:47:50.062,0,0.0,1,0,0,0
247,2023-08-19 16:47:50.271,0,0.0,1,0,0,0
248,2023-08-19 16:47:50.460,0,0.0,1,0,0,0
249,2023-08-19 16:47:50.667,0,0.0,1,0,0,0
250,2023-08-19 16:47:50.858,1,0.0,1,0,0,0
251,2023-08-19 16:47:51.074,0,0.0,1,0,0,0
252,2023-08-19 16:47:51.275,0,0.0,1,0,0,0
253,2023-08-19 16:47:51.473,0,0.0,1,0,0,0
254,2023-08-19 16:47:51.673,0,0.0,1,0,0,0
255,2023-08-19 16:47:51.865,-1,0.0,1,0,0,0
256,2023-08-19 16:47:52.069,1,0.0,1,0,0,0
257,2023-08-19 16:47:52.278,-1,0.0,1,0,0,0
258,2023-08-19 16:47:52.478,1,0.0,1,0,0,0
259,2023-08-19 16:47:52.671,-1,0.0,1,0,0,0
260,2023-08-19 16:47:52.874,0,0.0,1,0,0,0
261,2023-08-19 16:47:53.080,0,0.0,1,0,0,0
262,2023-08-19 16:47:53.274,-1,0.0,1,0,0,0
263,2023-08-19 16:47:53.479,0,0.0,1,0,0,0
264,2023-08-19 16:47:53.687,0,0.0,1,0,0,0
265,2023-08-19 16:47:53.888,0,0.0,1,0,0,0
266,2023-08-19 16:47:54.085,0,1.0,1,0,0,0
267,2023-08-19 16:47:54.275,0,0.0,1,0,0,0
268,2023-08-19 16:47:54.480,-2,0.0,1,0,0,0
269,2023-08-19 16:47:54.688,2,1.0,1,0,0,0
270,2023-08-19 16:47:54.887,-1,-1.0,1,0,0,0
271,2023-08-19 16:47:55.089,0,0.0,1,0,0,0
272,2023-08-19 16:47:55.278,0,0.0,1,0,0,0
273,2023-08-19 16:47:55.487,0,0.0,1,0,0,0
274,2023-08-19 16:47:55.689,-1,-1.0,1,0,0,0
275,2023-08-19 16:47:55.895,1,1.0,1,0,0,0
276,2023-08-19 16:47:56.083,-1,-1.0,1,0,0,0
277,2023-08-19 16:47:56.290,1,0.0,1,0,0,0
278,2023-08-19 16:47:56.495,-1,0.0,1,0,0,0
279,2023-08-19 16:47:56.689,1,0.0,1,0,0,0
280,2023-08-19 16:47:56.898,0,-1.0,1,0,0,0
281,2023-08-19 16:47:57.086,0,1.0,1,0,0,0
282,2023-08-19 16:47:57.293,0,-2.0,1,0,0,0
283,2023-08-19 16:47:57.499,0,2.0,1,0,0,0
284,2023-08-19 16:47:57.701,0,-1.0,1,0,0,0
285,2023-08-19 16:47:57.896,0,1.0,1,0,0,0
286,2023-08-19 16:47:58.101,0,0.0,1,0,0,0
287,2023-08-19 16:47:58.305,0,0.0,1,0,0,0
288,2023-08-19 16:47:58.497,0,0.0,1,0,0,0
289,2023-08-19 16:47:58.699,0,0.0,1,0,0,0
290,2023-08-19 16:47:58.906,0,0.0,1,0,0,0
291,2023-08-19 16:47:59.099,0,0.0,1,0,0,0
292,2023-08-19 16:47:59.304,0,0.0,1,0,0,0
293,2023-08-19 16:47:59.511,0,0.0,1,0,0,0
294,2023-08-19 16:47:59.701,0,0.0,1,0,0,0
295,2023-08-19 16:47:59.910,0,0.0,1,0,0,0
296,2023-08-19 16:48:00.114,0,0.0,1,0,0,0
297,2023-08-19 16:48:00.314,0,0.0,1,0,0,0
298,2023-08-19 16:48:00.512,0,0.0,1,0,0,0
299,2023-08-19 16:48:00.703,-1,0.0,1,0,0,0
300,2023-08-19 16:48:00.912,1,0.0,1,0,0,0
301,2023-08-19 16:48:01.104,-1,1.0,1,0,0,0
302,2023-08-19 16:48:01.316,1,-1.0,1,0,0,0
303,2023-08-19 16:48:01.514,0,1.0,1,0,0,0
304,2023-08-19 16:48:01.714,0,-1.0,1,0,0,0
305,2023-08-19 16:48:01.919,0,1.0,1,0,0,0
306,2023-08-19 16:48:02.112,0,0.0,1,0,0,0
307,2023-08-19 16:48:02.319,0,0.0,1,0,0,0
308,2023-08-19 16:48:02.513,0,0.0,1,0,0,0
309,2023-08-19 16:48:02.714,0,0.0,1,0,0,0
310,2023-08-19 16:48:02.919,0,0.0,1,0,0,0
311,2023-08-19 16:48:03.126,0,0.0,1,0,0,0
312,2023-08-19 16:48:03.329,0,0.0,1,0,0,0
313,2023-08-19 16:48:03.529,0,0.0,1,0,0,0
314,2023-08-19 16:48:03.718,-1,-1.0,1,0,0,0
315,2023-08-19 16:48:03.928,0,1.0,1,0,0,0
316,2023-08-19 16:48:04.129,0,0.0,1,0,0,0
317,2023-08-19 16:48:04.329,-1,0.0,1,0,0,0
318,2023-08-19 16:48:04.518,0,0.0,1,0,0,0
319,2023-08-19 16:48:04.726,0,0.0,1,0,0,0
320,2023-08-19 16:48:04.934,0,0.0,1,0,0,0
321,2023-08-19 16:48:05.125,0,0.0,1,0,0,0
322,2023-08-19 16:48:05.332,0,0.0,1,0,0,0
323,2023-08-19 16:48:05.527,0,0.0,1,0,0,0
324,2023-08-19 16:48:05.733,0,0.0,1,0,0,0
325,2023-08-19 16:48:05.924,0,0.0,1,0,0,0
326,2023-08-19 16:48:06.132,0,0.0,1,0,0,0
327,2023-08-19 16:48:06.323,0,0.0,1,0,0,0
328,2023-08-19 16:48:06.526,0,0.0,1,0,0,0
329,2023-08-19 16:48:06.738,0,0.0,1,0,0,0
330,2023-08-19 16:48:06.939,0,0.0,1,0,0,0
331,2023-08-19 16:48:07.129,0,0.0,1,0,0,0
332,2023-08-19 16:48:07.338,0,0.0,1,0,0,0
333,2023-08-19 16:48:07.541,0,-1.0,1,0,0,0
334,2023-08-19 16:48:07.732,0,1.0,1,0,0,0
335,2023-08-19 16:48:07.940,-1,-1.0,1,0,0,0
336,2023-08-19 16:48:08.150,1,1.0,1,0,0,0
337,2023-08-19 16:48:08.340,-1,-1.0,1,0,0,0
338,2023-08-19 16:48:08.546,1,0.0,1,0,0,0
339,2023-08-19 16:48:08.737,-1,0.0,1,0,0,0
340,2023-08-19 16:48:08.949,1,0.0,1,0,0,0
341,2023-08-19 16:48:09.149,0,0.0,1,0,0,0
342,2023-08-19 16:48:09.353,0,0.0,1,0,0,0
343,2023-08-19 16:48:09.545,0,0.0,1,0,0,0
344,2023-08-19 16:48:09.747,0,0.0,1,0,0,0
345,2023-08-19 16:48:09.951,0,0.0,1,0,0,0
346,2023-08-19 16:48:10.143,0,0.0,1,0,0,0
347,2023-08-19 16:48:10.350,0,0.0,1,0,0,0
348,2023-08-19 16:48:10.545,0,0.0,1,0,0,0
349,2023-08-19 16:48:10.755,0,0.0,1,0,0,0
350,2023-08-19 16:48:10.958,0,0.0,1,0,0,0
351,2023-08-19 16:48:11.147,0,0.0,1,0,0,0
352,2023-08-19 16:48:11.361,0,0.0,1,0,0,0
353,2023-08-19 16:48:11.547,0,0.0,1,0,0,0
354,2023-08-19 16:48:11.757,0,0.0,1,0,0,0
355,2023-08-19 16:48:11.963,1,1.0,1,0,0,0
356,2023-08-19 16:48:12.163,-1,-4.0,1,0,0,0
357,2023-08-19 16:48:12.358,0,5.0,1,0,0,0
358,2023-08-19 16:48:12.562,1,-2.0,1,0,0,0
359,2023-08-19 16:48:12.769,-2,-1.0,1,0,0,0
360,2023-08-19 16:48:12.970,0,2.0,1,0,0,0
361,2023-08-19 16:48:13.166,2,-2.0,1,0,0,0
362,2023-08-19 16:48:13.372,-2,2.0,1,0,0,0
363,2023-08-19 16:48:13.563,0,-3.0,1,0,0,0
364,2023-08-19 16:48:13.771,1,4.0,1,0,0,0
365,2023-08-19 16:48:13.964,-1,-4.0,1,0,0,0
366,2023-08-19 16:48:14.167,0,2.0,1,0,0,0
367,2023-08-19 16:48:14.363,0,0.0,1,0,0,0
368,2023-08-19 16:48:14.574,0,-2.0,1,0,0,0
369,2023-08-19 16:48:14.768,-1,1.0,1,0,0,0
370,2023-08-19 16:48:14.971,1,0.0,1,0,0,0
371,2023-08-19 16:48:15.175,0,0.0,1,0,0,0
372,2023-08-19 16:48:15.368,-2,0.0,1,0,0,0
373,2023-08-19 16:48:15.576,3,0.0,1,0,0,0
374,2023-08-19 16:48:15.772,-3,0.0,1,0,0,0
375,2023-08-19 16:48:15.976,2,1.0,1,0,0,0
376,2023-08-19 16:48:16.168,-1,-1.0,1,0,0,0
377,2023-08-19 16:48:16.378,1,2.0,1,0,0,0
378,2023-08-19 16:48:16.583,0,-3.0,1,0,0,0
379,2023-08-19 16:48:16.784,0,3.0,1,0,0,0
380,2023-08-19 16:48:16.984,1,-3.0,1,0,0,0
381,2023-08-19 16:48:17.183,-2,1.0,1,0,0,0
382,2023-08-19 16:48:17.382,2,0.0,1,0,0,0
383,2023-08-19 16:48:17.587,0,1.0,1,0,0,0
384,2023-08-19 16:48:17.778,0,-3.0,1,0,0,0
385,2023-08-19 16:48:17.986,-2,3.0,1,0,0,0
386,2023-08-19 16:48:18.183,5,-2.0,1,0,0,0
387,2023-08-19 16:48:18.384,-6,1.0,1,0,0,0
388,2023-08-19 16:48:18.592,4,0.0,1,0,0,0
389,2023-08-19 16:48:18.788,-1,0.0,1,0,0,0
390,2023-08-19 16:48:18.995,0,0.0,1,0,0,0
391,2023-08-19 16:48:19.196,2,0.0,1,0,0,0
392,2023-08-19 16:48:19.388,-2,0.0,1,0,0,0
393,2023-08-19 16:48:19.591,0,0.0,1,0,0,0
394,2023-08-19 16:48:19.798,1,0.0,1,0,0,0
395,2023-08-19 16:48:19.986,-2,-2.0,1,0,0,0
396,2023-08-19 16:48:20.194,1,2.0,1,0,0,0
397,2023-08-19 16:48:20.400,0,-1.0,1,0,0,0
398,2023-08-19 16:48:20.592,0,0.0,1,0,0,0
399,2023-08-19 16:48:20.800,1,0.0,1,0,0,0
400,2023-08-19 16:48:20.996,-1,-1.0,1,0,0,0
401,2023-08-19 16:48:21.201,0,0.0,1,0,0,0
402,2023-08-19 16:48:21.396,0,0.0,1,0,0,0
403,2023-08-19 16:48:21.601,0,0.0,1,0,0,0
404,2023-08-19 16:48:21.794,0,-1.0,1,0,0,0
405,2023-08-19 16:48:22.003,0,3.0,1,0,0,0
406,2023-08-19 16:48:22.208,0,-3.0,1,0,0,0
407,2023-08-19 16:48:22.399,-1,2.0,1,0,0,0
408,2023-08-19 16:48:22.606,2,0.0,1,0,0,0
409,2023-08-19 16:48:22.812,-1,-1.0,1,0,0,0
410,2023-08-19 16:48:23.012,0,2.0,1,0,0,0
411,2023-08-19 16:48:23.211,1,-1.0,1,0,0,0
412,2023-08-19 16:48:23.405,-3,0.0,1,0,0,0
413,2023-08-19 16:48:23.611,3,0.0,1,0,0,0
414,2023-08-19 16:48:23.811,-1,-1.0,1,0,0,0
415,2023-08-19 16:48:24.013,0,0.0,1,0,0,0
416,2023-08-19 16:48:24.217,0,0.0,1,0,0,0
417,2023-08-19 16:48:24.408,0,0.0,1,0,0,0
418,2023-08-19 16:48:24.615,-2,0.0,1,0,0,0
419,2023-08-19 16:48:24.809,3,1.0,1,0,0,0
420,2023-08-19 16:48:25.018,-3,-1.0,1,0,0,0
421,2023-08-19 16:48:25.209,2,1.0,1,0,0,0
422,2023-08-19 16:48:25.416,-1,0.0,1,0,0,0
423,2023-08-19 16:48:25.622,0,0.0,1,0,0,0
424,2023-08-19 16:48:25.814,0,0.0,1,0,0,0
425,2023-08-19 16:48:26.020,-1,-1.0,1,0,0,0
426,2023-08-19 16:48:26.225,1,1.0,1,0,0,0
427,2023-08-19 16:48:26.419,0,-1.0,1,0,0,0
428,2023-08-19 16:48:26.626,0,1.0,1,0,0,0
429,2023-08-19 16:48:26.830,0,-2.0,1,0,0,0
430,2023-08-19 16:48:27.023,0,3.0,1,0,0,0
431,2023-08-19 16:48:27.226,0,-3.0,1,0,0,0
432,2023-08-19 16:48:27.420,-1,3.0,1,0,0,0
433,2023-08-19 16:48:27.626,2,-2.0,1,0,0,0
434,2023-08-19 16:48:27.822,-2,1.0,1,0,0,0
435,2023-08-19 16:48:28.026,2,0.0,1,0,0,0
436,2023-08-19 16:48:28.233,-1,0.0,1,0,0,0
437,2023-08-19 16:48:28.425,0,-1.0,1,0,0,0
438,2023-08-19 16:48:28.632,0,1.0,1,0,0,0
439,2023-08-19 16:48:28.824,0,-1.0,1,0,0,0
440,2023-08-19 16:48:29.039,0,1.0,1,0,0,0
441,2023-08-19 16:48:29.239,1,0.0,1,0,0,0
442,2023-08-19 16:48:29.433,-1,-2.0,1,0,0,0
443,2023-08-19 16:48:29.637,1,3.0,1,0,0,0
444,2023-08-19 16:48:29.839,0,-1.0,1,0,0,0
445,2023-08-19 16:48:30.037,-1,0.0,1,0,0,0
446,2023-08-19 16:48:30.243,0,2.0,1,0,0,0
447,2023-08-19 16:48:30.443,0,-1.0,1,0,0,0
448,2023-08-19 16:48:30.641,-1,0.0,1,0,0,0
449,2023-08-19 16:48:30.833,0,0.0,1,0,0,0
450,2023-08-19 16:48:31.039,0,1.0,1,0,0,0
451,2023-08-19 16:48:31.246,0,-2.0,1,0,0,0
452,2023-08-19 16:48:31.438,-1,1.0,1,0,0,0
453,2023-08-19 16:48:31.643,1,0.0,1,0,0,0
454,2023-08-19 16:48:31.852,0,0.0,1,0,0,0
455,2023-08-19 16:48:32.042,0,0.0,1,0,0,0
456,2023-08-19 16:48:32.252,0,1.0,1,0,0,0
457,2023-08-19 16:48:32.441,0,-1.0,1,0,0,0
458,2023-08-19 16:48:32.649,-1,1.0,1,0,0,0
459,2023-08-19 16:48:32.856,1,0.0,1,0,0,0
460,2023-08-19 16:48:33.046,0,0.0,1,0,0,0
461,2023-08-19 16:48:33.254,0,0.0,1,0,0,0
462,2023-08-19 16:48:33.446,0,0.0,1,0,0,0
463,2023-08-19 16:48:33.655,0,0.0,1,0,0,0
464,2023-08-19 16:48:33.848,0,0.0,1,0,0,0
465,2023-08-19 16:48:34.053,-1,-2.0,1,0,0,0
466,2023-08-19 16:48:34.261,0,3.0,1,0,0,0
467,2023-08-19 16:48:34.452,0,-2.0,1,0,0,0
468,2023-08-19 16:48:34.662,0,1.0,1,0,0,0
469,2023-08-19 16:48:34.850,0,0.0,1,0,0,0
470,2023-08-19 16:48:35.057,-1,0.0,1,0,0,0
471,2023-08-19 16:48:35.263,3,0.0,1,0,0,0
472,2023-08-19 16:48:35.456,-3,0.0,1,0,0,0
473,2023-08-19 16:48:35.664,2,0.0,1,0,0,0
474,2023-08-19 16:48:35.867,-1,2.0,1,0,0,0
475,2023-08-19 16:48:36.067,1,-3.0,1,0,0,0
476,2023-08-19 16:48:36.254,-2,2.0,1,0,0,0
477,2023-08-19 16:48:36.463,1,0.0,1,0,0,0
478,2023-08-19 16:48:36.670,0,0.0,1,0,0,0
479,2023-08-19 16:48:36.866,-1,0.0,1,0,0,0
480,2023-08-19 16:48:37.068,1,0.0,1,0,0,0
481,2023-08-19 16:48:37.261,0,0.0,1,0,0,0
482,2023-08-19 16:48:37.476,1,0.0,1,0,0,0
483,2023-08-19 16:48:37.666,-2,0.0,1,0,0,0
484,2023-08-19 16:48:37.875,3,0.0,1,0,0,0
485,2023-08-19 16:48:38.069,-2,0.0,1,0,0,0
486,2023-08-19 16:48:38.276,1,0.0,1,0,0,0
487,2023-08-19 16:48:38.465,0,0.0,1,0,0,0
488,2023-08-19 16:48:38.680,0,0.0,1,0,0,0
489,2023-08-19 16:48:38.880,1,0.0,1,0,0,0
490,2023-08-19 16:48:39.075,-2,0.0,1,0,0,0
491,2023-08-19 16:48:39.283,1,0.0,1,0,0,0
492,2023-08-19 16:48:39.483,0,0.0,1,0,0,0
493,2023-08-19 16:48:39.676,0,0.0,1,0,0,0
494,2023-08-19 16:48:39.881,1,0.0,1,0,0,0
495,2023-08-19 16:48:40.074,-2,1.0,1,0,0,0
496,2023-08-19 16:48:40.280,2,-1.0,1,0,0,0
497,2023-08-19 16:48:40.487,-2,0.0,1,0,0,0
498,2023-08-19 16:48:40.679,1,0.0,1,0,0,0
499,2023-08-19 16:48:40.886,0,0.0,1,0,0,0
500,2023-08-19 16:48:41.093,0,0.0,1,0,0,0
501,2023-08-19 16:48:41.294,0,0.0,1,0,0,0
502,2023-08-19 16:48:41.494,1,0.0,1,0,0,0
503,2023-08-19 16:48:41.682,-2,0.0,1,0,0,0
504,2023-08-19 16:48:41.888,1,0.0,1,0,0,0
505,2023-08-19 16:48:42.096,0,0.0,1,0,0,0
506,2023-08-19 16:48:42.293,0,-1.0,1,0,0,0
507,2023-08-19 16:48:42.497,0,2.0,1,0,0,0
508,2023-08-19 16:48:42.694,0,-2.0,1,0,0,0
509,2023-08-19 16:48:42.893,0,0.0,1,0,0,0
510,2023-08-19 16:48:43.099,0,0.0,1,0,0,0
511,2023-08-19 16:48:43.287,0,-1.0,1,0,0,0
512,2023-08-19 16:48:43.493,0,1.0,1,0,0,0
513,2023-08-19 16:48:43.700,0,-1.0,1,0,0,0
514,2023-08-19 16:48:43.890,0,2.0,1,0,0,0
515,2023-08-19 16:48:44.098,2,-2.0,1,0,0,0
516,2023-08-19 16:48:44.304,-3,0.0,1,0,0,0
517,2023-08-19 16:48:44.504,3,1.0,1,0,0,0
518,2023-08-19 16:48:44.705,-1,-1.0,1,0,0,0
519,2023-08-19 16:48:44.899,0,0.0,1,0,0,0
520,2023-08-19 16:48:45.104,0,0.0,1,0,0,0
521,2023-08-19 16:48:45.296,1,0.0,1,0,0,0
522,2023-08-19 16:48:45.508,-1,0.0,1,0,0,0
523,2023-08-19 16:48:45.695,1,0.0,1,0,0,0
524,2023-08-19 16:48:45.902,0,0.0,1,0,0,0
525,2023-08-19 16:48:46.110,0,-1.0,1,0,0,0
526,2023-08-19 16:48:46.302,0,0.0,1,0,0,0
527,2023-08-19 16:48:46.512,0,0.0,1,0,0,0
528,2023-08-19 16:48:46.708,0,-2.0,1,0,0,0
529,2023-08-19 16:48:46.910,-2,2.0,1,0,0,0
530,2023-08-19 16:48:47.103,3,-2.0,1,0,0,0
531,2023-08-19 16:48:47.308,-2,1.0,1,0,0,0
532,2023-08-19 16:48:47.514,0,-1.0,1,0,0,0
533,2023-08-19 16:48:47.708,2,2.0,1,0,0,0
534,2023-08-19 16:48:47.915,-2,-1.0,1,0,0,0
535,2023-08-19 16:48:48.107,0,0.0,1,0,0,0
536,2023-08-19 16:48:48.322,0,0.0,1,0,0,0
537,2023-08-19 16:48:48.523,0,-1.0,1,0,0,0
538,2023-08-19 16:48:48.722,0,0.0,1,0,0,0
539,2023-08-19 16:48:48.919,0,0.0,1,0,0,0
540,2023-08-19 16:48:49.111,0,1.0,1,0,0,0
541,2023-08-19 16:48:49.321,1,-1.0,1,0,0,0
542,2023-08-19 16:48:49.526,-1,0.0,1,0,0,0
543,2023-08-19 16:48:49.720,1,0.0,1,0,0,0
544,2023-08-19 16:48:49.920,0,0.0,1,0,0,0
545,2023-08-19 16:48:50.129,0,0.0,1,0,0,0
546,2023-08-19 16:48:50.326,0,0.0,1,0,0,0
547,2023-08-19 16:48:50.527,0,0.0,1,0,0,0
548,2023-08-19 16:48:50.734,0,-1.0,1,0,0,0
549,2023-08-19 16:48:50.925,0,1.0,1,0,0,0
550,2023-08-19 16:48:51.134,0,-1.0,1,0,0,0
551,2023-08-19 16:48:51.336,0,0.0,1,0,0,0
552,2023-08-19 16:48:51.537,1,0.0,1,0,0,0
553,2023-08-19 16:48:51.735,0,0.0,1,0,0,0
554,2023-08-19 16:48:51.935,0,0.0,1,0,0,0
555,2023-08-19 16:48:52.138,0,0.0,1,0,0,0
556,2023-08-19 16:48:52.332,0,0.0,1,0,0,0
557,2023-08-19 16:48:52.537,0,0.0,1,0,0,0
558,2023-08-19 16:48:52.735,0,0.0,1,0,0,0
559,2023-08-19 16:48:52.932,0,0.0,1,0,0,0
560,2023-08-19 16:48:53.138,0,-1.0,1,0,0,0
561,2023-08-19 16:48:53.341,0,1.0,1,0,0,0
562,2023-08-19 16:48:53.536,0,-2.0,1,0,0,0
563,2023-08-19 16:48:53.745,-1,2.0,1,0,0,0
564,2023-08-19 16:48:53.935,1,-1.0,1,0,0,0
565,2023-08-19 16:48:54.143,0,0.0,1,0,0,0
566,2023-08-19 16:48:54.334,-1,0.0,1,0,0,0
567,2023-08-19 16:48:54.544,2,0.0,1,0,0,0
568,2023-08-19 16:48:54.738,-2,0.0,1,0,0,0
569,2023-08-19 16:48:54.943,1,0.0,1,0,0,0
570,2023-08-19 16:48:55.145,0,0.0,1,0,0,0
571,2023-08-19 16:48:55.345,0,0.0,1,0,0,0
572,2023-08-19 16:48:55.555,0,0.0,1,0,0,0
573,2023-08-19 16:48:55.744,0,0.0,1,0,0,0
574,2023-08-19 16:48:55.951,0,0.0,1,0,0,0
575,2023-08-19 16:48:56.156,0,0.0,1,0,0,0
576,2023-08-19 16:48:56.346,0,0.0,1,0,0,0
577,2023-08-19 16:48:56.550,0,1.0,1,0,0,0
578,2023-08-19 16:48:56.758,1,0.0,1,0,0,0
579,2023-08-19 16:48:56.947,-2,-2.0,1,0,0,0
580,2023-08-19 16:48:57.159,0,4.0,1,0,0,0
581,2023-08-19 16:48:57.351,1,-3.0,1,0,0,0
582,2023-08-19 16:48:57.557,-1,0.0,1,0,0,0
583,2023-08-19 16:48:57.763,0,0.0,1,0,0,0
584,2023-08-19 16:48:57.963,2,0.0,1,0,0,0
585,2023-08-19 16:48:58.163,-3,-1.0,1,0,0,0
586,2023-08-19 16:48:58.352,2,2.0,1,0,0,0
587,2023-08-19 16:48:58.558,-2,-3.0,1,0,0,0
588,2023-08-19 16:48:58.763,1,4.0,1,0,0,0
589,2023-08-19 16:48:58.962,0,-4.0,1,0,0,0
590,2023-08-19 16:48:59.165,-2,2.0,1,0,0,0
591,2023-08-19 16:48:59.361,2,0.0,1,0,0,0
592,2023-08-19 16:48:59.559,0,0.0,1,0,0,0
593,2023-08-19 16:48:59.766,0,0.0,1,0,0,0
594,2023-08-19 16:48:59.956,0,0.0,1,0,0,0
595,2023-08-19 16:49:00.163,0,0.0,1,0,0,0
596,2023-08-19 16:49:00.373,0,0.0,1,0,0,0
597,2023-08-19 16:49:00.576,0,0.0,1,0,0,0
598,2023-08-19 16:49:00.777,0,1.0,1,0,0,0
599,2023-08-19 16:49:00.975,0,-2.0,1,0,0,0
600,2023-08-19 16:49:01.165,0,2.0,1,0,0,0
601,2023-08-19 16:49:01.370,1,-3.0,1,0,0,0
602,2023-08-19 16:49:01.581,-2,2.0,1,0,0,0
603,2023-08-19 16:49:01.769,0,-1.0,1,0,0,0
604,2023-08-19 16:49:01.979,1,1.0,1,0,0,0
605,2023-08-19 16:49:02.173,-3,-1.0,1,0,0,0
606,2023-08-19 16:49:02.379,2,0.0,1,0,0,0
607,2023-08-19 16:49:02.574,-1,1.0,1,0,0,0
608,2023-08-19 16:49:02.784,0,-1.0,1,0,0,0
609,2023-08-19 16:49:02.985,0,0.0,1,0,0,0
610,2023-08-19 16:49:03.174,-1,1.0,1,0,0,0
611,2023-08-19 16:49:03.386,3,-1.0,1,0,0,0
612,2023-08-19 16:49:03.586,-4,0.0,1,0,0,0
613,2023-08-19 16:49:03.782,2,1.0,1,0,0,0
614,2023-08-19 16:49:03.988,0,-1.0,1,0,0,0
615,2023-08-19 16:49:04.181,-1,0.0,1,0,0,0
616,2023-08-19 16:49:04.389,2,1.0,1,0,0,0
617,2023-08-19 16:49:04.591,-2,-2.0,1,0,0,0
618,2023-08-19 16:49:04.791,1,1.0,1,0,0,0
619,2023-08-19 16:49:04.994,0,0.0,1,0,0,0
620,2023-08-19 16:49:05.185,0,0.0,1,0,0,0
621,2023-08-19 16:49:05.393,0,0.0,1,0,0,0
622,2023-08-19 16:49:05.589,-1,0.0,1,0,0,0
623,2023-08-19 16:49:05.793,1,0.0,1,0,0,0
624,2023-08-19 16:49:05.999,-1,0.0,1,0,0,0
625,2023-08-19 16:49:06.192,1,-1.0,1,0,0,0
626,2023-08-19 16:49:06.401,-1,2.0,1,0,0,0
627,2023-08-19 16:49:06.602,1,-1.0,1,0,0,0
628,2023-08-19 16:49:06.799,0,1.0,1,0,0,0
629,2023-08-19 16:49:06.991,0,0.0,1,0,0,0
630,2023-08-19 16:49:07.196,1,0.0,1,0,0,0
631,2023-08-19 16:49:07.403,-1,0.0,1,0,0,0
632,2023-08-19 16:49:07.603,0,0.0,1,0,0,0
633,2023-08-19 16:49:07.804,0,0.0,1,0,0,0
634,2023-08-19 16:49:08.005,-1,0.0,1,0,0,0
635,2023-08-19 16:49:08.208,1,1.0,1,0,0,0
636,2023-08-19 16:49:08.402,0,-1.0,1,0,0,0
637,2023-08-19 16:49:08.609,0,0.0,1,0,0,0
638,2023-08-19 16:49:08.797,1,0.0,1,0,0,0
639,2023-08-19 16:49:09.005,0,-1.0,1,0,0,0
640,2023-08-19 16:49:09.203,0,1.0,1,0,0,0
641,2023-08-19 16:49:09.405,0,-1.0,1,0,0,0
642,2023-08-19 16:49:09.611,0,1.0,1,0,0,0
643,2023-08-19 16:49:09.817,0,0.0,1,0,0,0
644,2023-08-19 16:49:10.012,0,0.0,1,0,0,0
645,2023-08-19 16:49:10.217,0,0.0,1,0,0,0
646,2023-08-19 16:49:10.409,2,0.0,1,0,0,0
647,2023-08-19 16:49:10.617,-2,-1.0,1,0,0,0
648,2023-08-19 16:49:10.818,0,2.0,1,0,0,0
649,2023-08-19 16:49:11.015,1,0.0,1,0,0,0
650,2023-08-19 16:49:11.222,-1,0.0,1,0,0,0
651,2023-08-19 16:49:11.413,0,0.0,1,0,0,0
652,2023-08-19 16:49:11.621,0,0.0,1,0,0,0
653,2023-08-19 16:49:11.818,0,-1.0,1,0,0,0
654,2023-08-19 16:49:12.021,0,1.0,1,0,0,0
655,2023-08-19 16:49:12.219,1,0.0,1,0,0,0
656,2023-08-19 16:49:12.421,0,-2.0,1,0,0,0
657,2023-08-19 16:49:12.621,0,1.0,1,0,0,0
658,2023-08-19 16:49:12.827,0,0.0,1,0,0,0
659,2023-08-19 16:49:13.028,0,0.0,1,0,0,0
660,2023-08-19 16:49:13.228,0,0.0,1,0,0,0
661,2023-08-19 16:49:13.424,0,0.0,1,0,0,0
662,2023-08-19 16:49:13.630,0,0.0,1,0,0,0
663,2023-08-19 16:49:13.831,0,0.0,1,0,0,0
664,2023-08-19 16:49:14.022,0,-1.0,1,0,0,0
665,2023-08-19 16:49:14.233,0,1.0,1,0,0,0
666,2023-08-19 16:49:14.429,1,0.0,1,0,0,0
667,2023-08-19 16:49:14.629,-1,0.0,1,0,0,0
668,2023-08-19 16:49:14.836,0,0.0,1,0,0,0
669,2023-08-19 16:49:15.029,1,0.0,1,0,0,0
670,2023-08-19 16:49:15.237,-1,-1.0,1,0,0,0
671,2023-08-19 16:49:15.436,1,2.0,1,0,0,0
672,2023-08-19 16:49:15.641,0,-1.0,1,0,0,0
673,2023-08-19 16:49:15.842,0,0.0,1,0,0,0
674,2023-08-19 16:49:16.035,1,0.0,1,0,0,0
675,2023-08-19 16:49:16.242,-1,-1.0,1,0,0,0
676,2023-08-19 16:49:16.442,1,2.0,1,0,0,0
677,2023-08-19 16:49:16.638,0,-1.0,1,0,0,0
678,2023-08-19 16:49:16.846,-1,0.0,1,0,0,0
679,2023-08-19 16:49:17.046,1,0.0,1,0,0,0
680,2023-08-19 16:49:17.245,-1,0.0,1,0,0,0
681,2023-08-19 16:49:17.447,0,0.0,1,0,0,0
682,2023-08-19 16:49:17.644,0,0.0,1,0,0,0
683,2023-08-19 16:49:17.845,-1,1.0,1,0,0,0
684,2023-08-19 16:49:18.047,1,0.0,1,0,0,0
685,2023-08-19 16:49:18.249,-1,0.0,1,0,0,0
686,2023-08-19 16:49:18.450,-1,1.0,1,0,0,0
687,2023-08-19 16:49:18.652,3,0.0,1,0,0,0
688,2023-08-19 16:49:18.843,-2,0.0,1,0,0,0
689,2023-08-19 16:49:19.051,1,0.0,1,0,0,0
690,2023-08-19 16:49:19.257,0,1.0,1,0,0,0
691,2023-08-19 16:49:19.455,0,0.0,1,0,0,0
692,2023-08-19 16:49:19.655,0,0.0,1,0,0,0
693,2023-08-19 16:49:19.859,0,-1.0,1,0,0,0
694,2023-08-19 16:49:20.052,0,1.0,1,0,0,0
695,2023-08-19 16:49:20.257,0,0.0,1,0,0,0
696,2023-08-19 16:49:20.456,0,0.0,1,0,0,0
697,2023-08-19 16:49:20.654,0,0.0,1,0,0,0
698,2023-08-19 16:49:20.862,0,0.0,1,0,0,0
699,2023-08-19 16:49:21.059,0,1.0,1,0,0,0
700,2023-08-19 16:49:21.263,0,-1.0,1,0,0,0
701,2023-08-19 16:49:21.462,0,0.0,1,0,0,0
702,2023-08-19 16:49:21.661,0,0.0,1,0,0,0
703,2023-08-19 16:49:21.854,0,0.0,1,0,0,0
704,2023-08-19 16:49:22.062,0,0.0,1,0,0,0
705,2023-08-19 16:49:22.268,0,0.0,1,0,0,0
706,2023-08-19 16:49:22.467,0,0.0,1,0,0,0
707,2023-08-19 16:49:22.666,0,0.0,1,0,0,0
708,2023-08-19 16:49:22.870,0,0.0,1,0,0,0
709,2023-08-19 16:49:23.071,0,0.0,1,0,0,0
710,2023-08-19 16:49:23.272,0,-1.0,1,0,0,0
711,2023-08-19 16:49:23.468,0,1.0,1,0,0,0
712,2023-08-19 16:49:23.668,0,-1.0,1,0,0,0
713,2023-08-19 16:49:23.873,-1,0.0,1,0,0,0
714,2023-08-19 16:49:24.073,0,0.0,1,0,0,0
715,2023-08-19 16:49:24.277,0,0.0,1,0,0,0
716,2023-08-19 16:49:24.478,-1,-1.0,1,0,0,0
717,2023-08-19 16:49:24.678,0,1.0,1,0,0,0
718,2023-08-19 16:49:24.871,0,0.0,1,0,0,0
719,2023-08-19 16:49:25.075,0,-1.0,1,0,0,0
720,2023-08-19 16:49:25.284,0,1.0,1,0,0,0
721,2023-08-19 16:49:25.480,0,0.0,1,0,0,0
722,2023-08-19 16:49:25.683,0,0.0,1,0,0,0
723,2023-08-19 16:49:25.884,0,0.0,1,0,0,0
724,2023-08-19 16:49:26.080,0,0.0,1,0,0,0
725,2023-08-19 16:49:26.283,0,0.0,1,0,0,0
726,2023-08-19 16:49:26.482,0,0.0,1,0,0,0
727,2023-08-19 16:49:26.684,0,1.0,1,0,0,0
728,2023-08-19 16:49:26.885,0,-1.0,1,0,0,0
729,2023-08-19 16:49:27.079,0,1.0,1,0,0,0
730,2023-08-19 16:49:27.286,1,0.0,1,0,0,0
731,2023-08-19 16:49:27.486,0,0.0,1,0,0,0
732,2023-08-19 16:49:27.686,0,0.0,1,0,0,0
733,2023-08-19 16:49:27.885,0,0.0,1,0,0,0
734,2023-08-19 16:49:28.088,0,0.0,1,0,0,0
735,2023-08-19 16:49:28.292,0,0.0,1,0,0,0
736,2023-08-19 16:49:28.493,0,0.0,1,0,0,0
737,2023-08-19 16:49:28.695,0,0.0,1,0,0,0
738,2023-08-19 16:49:28.896,0,0.0,1,0,0,0
739,2023-08-19 16:49:29.093,0,0.0,1,0,0,0
740,2023-08-19 16:49:29.297,0,0.0,1,0,0,0
741,2023-08-19 16:49:29.496,0,0.0,1,0,0,0
742,2023-08-19 16:49:29.700,0,0.0,1,0,0,0
743,2023-08-19 16:49:29.900,0,0.0,1,0,0,0
744,2023-08-19 16:49:30.092,0,0.0,1,0,0,0
745,2023-08-19 16:49:30.296,0,0.0,1,0,0,0
746,2023-08-19 16:49:30.504,0,0.0,1,0,0,0
747,2023-08-19 16:49:30.696,0,0.0,1,0,0,0
748,2023-08-19 16:49:30.902,0,0.0,1,0,0,0
749,2023-08-19 16:49:31.107,0,0.0,1,0,0,0
750,2023-08-19 16:49:31.295,0,0.0,1,0,0,0
751,2023-08-19 16:49:31.499,0,0.0,1,0,0,0
752,2023-08-19 16:49:31.708,0,0.0,1,0,0,0
753,2023-08-19 16:49:31.901,1,0.0,1,0,0,0
754,2023-08-19 16:49:32.110,-1,0.0,1,0,0,0
755,2023-08-19 16:49:32.300,1,0.0,1,0,0,0
756,2023-08-19 16:49:32.508,0,0.0,1,0,0,0
757,2023-08-19 16:49:32.711,1,0.0,1,0,0,0
758,2023-08-19 16:49:32.914,-1,0.0,1,0,0,0
759,2023-08-19 16:49:33.114,1,0.0,1,0,0,0
760,2023-08-19 16:49:33.305,-1,-1.0,1,0,0,0
761,2023-08-19 16:49:33.516,1,1.0,1,0,0,0
762,2023-08-19 16:49:33.714,0,-1.0,1,0,0,0
763,2023-08-19 16:49:33.914,0,0.0,1,0,0,0
764,2023-08-19 16:49:34.118,1,1.0,1,0,0,0
765,2023-08-19 16:49:34.309,-1,-2.0,1,0,0,0
766,2023-08-19 16:49:34.516,0,2.0,1,0,0,0
767,2023-08-19 16:49:34.724,0,0.0,1,0,0,0
768,2023-08-19 16:49:34.919,0,-1.0,1,0,0,0
769,2023-08-19 16:49:35.125,0,3.0,1,0,0,0
770,2023-08-19 16:49:35.320,0,-2.0,1,0,0,0
771,2023-08-19 16:49:35.522,0,1.0,1,0,0,0
772,2023-08-19 16:49:35.725,0,0.0,1,0,0,0
773,2023-08-19 16:49:35.916,0,0.0,1,0,0,0
774,2023-08-19 16:49:36.124,0,0.0,1,0,0,0
775,2023-08-19 16:49:36.329,0,0.0,1,0,0,0
776,2023-08-19 16:49:36.530,0,1.0,1,0,0,0
777,2023-08-19 16:49:36.718,0,0.0,1,0,0,0
778,2023-08-19 16:49:36.929,0,0.0,1,0,0,0
779,2023-08-19 16:49:37.131,0,0.0,1,0,0,0
780,2023-08-19 16:49:37.324,1,0.0,1,0,0,0
781,2023-08-19 16:49:37.531,-1,0.0,1,0,0,0
782,2023-08-19 16:49:37.723,0,0.0,1,0,0,0
783,2023-08-19 16:49:37.929,0,0.0,1,0,0,0
784,2023-08-19 16:49:38.136,0,0.0,1,0,0,0
785,2023-08-19 16:49:38.329,0,1.0,1,0,0,0
786,2023-08-19 16:49:38.535,0,0.0,1,0,0,0
787,2023-08-19 16:49:38.729,0,0.0,1,0,0,0
788,2023-08-19 16:49:38.938,1,0.0,1,0,0,0
789,2023-08-19 16:49:39.144,0,0.0,1,0,0,0
790,2023-08-19 16:49:39.344,0,0.0,1,0,0,0
791,2023-08-19 16:49:39.543,0,0.0,1,0,0,0
792,2023-08-19 16:49:39.732,1,0.0,1,0,0,0
793,2023-08-19 16:49:39.941,-1,0.0,1,0,0,0
794,2023-08-19 16:49:40.144,1,0.0,1,0,0,0
795,2023-08-19 16:49:40.336,0,0.0,1,0,0,0
796,2023-08-19 16:49:40.541,0,0.0,1,0,0,0
797,2023-08-19 16:49:40.748,0,0.0,1,0,0,0
798,2023-08-19 16:49:40.939,0,0.0,1,0,0,0
799,2023-08-19 16:49:41.148,0,0.0,1,0,0,0
800,2023-08-19 16:49:41.337,0,0.0,1,0,0,0
801,2023-08-19 16:49:41.542,0,0.0,1,0,0,0
802,2023-08-19 16:49:41.752,0,1.0,1,0,0,0
803,2023-08-19 16:49:41.938,0,-1.0,1,0,0,0
804,2023-08-19 16:49:42.152,0,1.0,1,0,0,0
805,2023-08-19 16:49:42.354,0,-1.0,1,0,0,0
806,2023-08-19 16:49:42.547,0,0.0,1,0,0,0
807,2023-08-19 16:49:42.753,0,0.0,1,0,0,0
808,2023-08-19 16:49:42.943,0,-1.0,1,0,0,0
809,2023-08-19 16:49:43.156,0,0.0,1,0,0,0
810,2023-08-19 16:49:43.354,0,0.0,1,0,0,0
811,2023-08-19 16:49:43.562,0,-1.0,1,0,0,0
812,2023-08-19 16:49:43.753,0,1.0,1,0,0,0
813,2023-08-19 16:49:43.964,1,-1.0,1,0,0,0
814,2023-08-19 16:49:44.151,-1,1.0,1,0,0,0
815,2023-08-19 16:49:44.358,0,0.0,1,0,0,0
816,2023-08-19 16:49:44.564,0,0.0,1,0,0,0
817,2023-08-19 16:49:44.767,0,0.0,1,0,0,0
818,2023-08-19 16:49:44.968,0,-1.0,1,0,0,0
819,2023-08-19 16:49:45.169,0,2.0,1,0,0,0
820,2023-08-19 16:49:45.359,0,-1.0,1,0,0,0
821,2023-08-19 16:49:45.570,0,0.0,1,0,0,0
822,2023-08-19 16:49:45.770,0,0.0,1,0,0,0
823,2023-08-19 16:49:45.968,0,0.0,1,0,0,0
824,2023-08-19 16:49:46.171,0,0.0,1,0,0,0
825,2023-08-19 16:49:46.363,0,0.0,1,0,0,0
826,2023-08-19 16:49:46.571,0,0.0,1,0,0,0
827,2023-08-19 16:49:46.772,0,0.0,1,0,0,0
828,2023-08-19 16:49:46.971,0,-1.0,1,0,0,0
829,2023-08-19 16:49:47.176,0,1.0,1,0,0,0
830,2023-08-19 16:49:47.369,0,-1.0,1,0,0,0
831,2023-08-19 16:49:47.569,0,0.0,1,0,0,0
832,2023-08-19 16:49:47.771,0,0.0,1,0,0,0
833,2023-08-19 16:49:47.978,0,0.0,1,0,0,0
834,2023-08-19 16:49:48.169,0,0.0,1,0,0,0
835,2023-08-19 16:49:48.376,0,0.0,1,0,0,0
836,2023-08-19 16:49:48.581,-1,-1.0,1,0,0,0
837,2023-08-19 16:49:48.784,0,0.0,1,0,0,0
838,2023-08-19 16:49:48.978,0,1.0,1,0,0,0
839,2023-08-19 16:49:49.185,0,-3.0,1,0,0,0
840,2023-08-19 16:49:49.375,-1,2.0,1,0,0,0
841,2023-08-19 16:49:49.579,2,-1.0,1,0,0,0
842,2023-08-19 16:49:49.784,-1,0.0,1,0,0,0
843,2023-08-19 16:49:49.978,0,1.0,1,0,0,0
844,2023-08-19 16:49:50.188,0,0.0,1,0,0,0
845,2023-08-19 16:49:50.388,-1,0.0,1,0,0,0
846,2023-08-19 16:49:50.583,0,0.0,1,0,0,0
847,2023-08-19 16:49:50.788,0,0.0,1,0,0,0
848,2023-08-19 16:49:50.993,0,0.0,1,0,0,0
849,2023-08-19 16:49:51.189,0,0.0,1,0,0,0
850,2023-08-19 16:49:51.394,0,0.0,1,0,0,0
851,2023-08-19 16:49:51.593,0,0.0,1,0,0,0
852,2023-08-19 16:49:51.794,0,0.0,1,0,0,0
853,2023-08-19 16:49:51.985,0,0.0,1,0,0,0
854,2023-08-19 16:49:52.190,-1,0.0,1,0,0,0
855,2023-08-19 16:49:52.397,1,1.0,1,0,0,0
856,2023-08-19 16:49:52.588,0,-2.0,1,0,0,0
857,2023-08-19 16:49:52.795,0,0.0,1,0,0,0
858,2023-08-19 16:49:53.000,0,0.0,1,0,0,0
859,2023-08-19 16:49:53.192,0,-1.0,1,0,0,0
860,2023-08-19 16:49:53.401,0,1.0,1,0,0,0
861,2023-08-19 16:49:53.596,0,0.0,1,0,0,0
862,2023-08-19 16:49:53.798,0,0.0,1,0,0,0
863,2023-08-19 16:49:54.007,0,0.0,1,0,0,0
864,2023-08-19 16:49:54.208,0,1.0,1,0,0,0
865,2023-08-19 16:49:54.402,0,0.0,1,0,0,0
866,2023-08-19 16:49:54.608,0,0.0,1,0,0,0
867,2023-08-19 16:49:54.800,-1,0.0,1,0,0,0
868,2023-08-19 16:49:55.007,1,0.0,1,0,0,0
869,2023-08-19 16:49:55.199,-1,0.0,1,0,0,0
870,2023-08-19 16:49:55.412,0,0.0,1,0,0,0
871,2023-08-19 16:49:55.612,0,0.0,1,0,0,0
872,2023-08-19 16:49:55.805,0,0.0,1,0,0,0
873,2023-08-19 16:49:56.015,0,0.0,1,0,0,0
874,2023-08-19 16:49:56.205,0,0.0,1,0,0,0
875,2023-08-19 16:49:56.411,0,1.0,1,0,0,0
876,2023-08-19 16:49:56.610,0,-1.0,1,0,0,0
877,2023-08-19 16:49:56.811,0,1.0,1,0,0,0
878,2023-08-19 16:49:57.018,0,-1.0,1,0,0,0
879,2023-08-19 16:49:57.214,0,0.0,1,0,0,0
880,2023-08-19 16:49:57.419,0,0.0,1,0,0,0
881,2023-08-19 16:49:57.610,0,0.0,1,0,0,0
882,2023-08-19 16:49:57.814,0,0.0,1,0,0,0
883,2023-08-19 16:49:58.022,0,0.0,1,0,0,0
884,2023-08-19 16:49:58.225,0,0.0,1,0,0,0
885,2023-08-19 16:49:58.417,0,0.0,1,0,0,0
886,2023-08-19 16:49:58.626,0,0.0,1,0,0,0
887,2023-08-19 16:49:58.815,0,0.0,1,0,0,0
888,2023-08-19 16:49:59.025,0,0.0,1,0,0,0
889,2023-08-19 16:49:59.230,0,-1.0,1,0,0,0
890,2023-08-19 16:49:59.424,0,1.0,1,0,0,0
891,2023-08-19 16:49:59.630,0,-2.0,1,0,0,0
892,2023-08-19 16:49:59.830,0,1.0,1,0,0,0
893,2023-08-19 16:50:00.020,0,0.0,1,0,0,0
894,2023-08-19 16:50:00.228,-1,0.0,1,0,0,0
895,2023-08-19 16:50:00.421,0,1.0,1,0,0,0
896,2023-08-19 16:50:00.627,0,0.0,1,0,0,0
897,2023-08-19 16:50:00.835,0,0.0,1,0,0,0
898,2023-08-19 16:50:01.025,0,0.0,1,0,0,0
899,2023-08-19 16:50:01.237,0,0.0,1,0,0,0
900,2023-08-19 16:50:01.423,0,0.0,1,0,0,0
901,2023-08-19 16:50:01.631,0,0.0,1,0,0,0
902,2023-08-19 16:50:01.839,0,0.0,1,0,0,0
903,2023-08-19 16:50:02.031,0,0.0,1,0,0,0
904,2023-08-19 16:50:02.240,0,0.0,1,0,0,0
905,2023-08-19 16:50:02.438,0,0.0,1,0,0,0
906,2023-08-19 16:50:02.642,0,0.0,1,0,0,0
907,2023-08-19 16:50:02.846,0,0.0,1,0,0,0
908,2023-08-19 16:50:03.035,0,0.0,1,0,0,0
909,2023-08-19 16:50:03.241,0,0.0,1,0,0,0
910,2023-08-19 16:50:03.446,0,1.0,1,0,0,0
911,2023-08-19 16:50:03.642,0,-1.0,1,0,0,0
912,2023-08-19 16:50:03.847,-1,0.0,1,0,0,0
913,2023-08-19 16:50:04.051,0,0.0,1,0,0,0
914,2023-08-19 16:50:04.243,0,0.0,1,0,0,0
915,2023-08-19 16:50:04.451,0,0.0,1,0,0,0
916,2023-08-19 16:50:04.653,1,0.0,1,0,0,0
917,2023-08-19 16:50:04.853,-1,0.0,1,0,0,0
918,2023-08-19 16:50:05.040,1,0.0,1,0,0,0
919,2023-08-19 16:50:05.248,-1,0.0,1,0,0,0
920,2023-08-19 16:50:05.456,0,0.0,1,0,0,0
921,2023-08-19 16:50:05.649,0,-1.0,1,0,0,0
922,2023-08-19 16:50:05.856,0,0.0,1,0,0,0
923,2023-08-19 16:50:06.051,0,0.0,1,0,0,0
924,2023-08-19 16:50:06.257,0,0.0,1,0,0,0
925,2023-08-19 16:50:06.449,0,0.0,1,0,0,0
926,2023-08-19 16:50:06.660,0,0.0,1,0,0,0
927,2023-08-19 16:50:06.851,0,0.0,1,0,0,0
928,2023-08-19 16:50:07.058,0,0.0,1,0,0,0
929,2023-08-19 16:50:07.250,0,0.0,1,0,0,0
930,2023-08-19 16:50:07.456,1,0.0,1,0,0,0
931,2023-08-19 16:50:07.664,-1,0.0,1,0,0,0
932,2023-08-19 16:50:07.866,0,0.0,1,0,0,0
933,2023-08-19 16:50:08.062,0,0.0,1,0,0,0
934,2023-08-19 16:50:08.266,0,0.0,1,0,0,0
935,2023-08-19 16:50:08.466,0,1.0,1,0,0,0
936,2023-08-19 16:50:08.668,0,-1.0,1,0,0,0
937,2023-08-19 16:50:08.870,0,1.0,1,0,0,0
938,2023-08-19 16:50:09.066,0,0.0,1,0,0,0
939,2023-08-19 16:50:09.273,0,0.0,1,0,0,0
940,2023-08-19 16:50:09.474,0,0.0,1,0,0,0
941,2023-08-19 16:50:09.664,0,0.0,1,0,0,0
942,2023-08-19 16:50:09.871,0,-1.0,1,0,0,0
943,2023-08-19 16:50:10.065,0,1.0,1,0,0,0
944,2023-08-19 16:50:10.268,0,0.0,1,0,0,0
945,2023-08-19 16:50:10.475,0,0.0,1,0,0,0
946,2023-08-19 16:50:10.677,0,0.0,1,0,0,0
947,2023-08-19 16:50:10.876,0,0.0,1,0,0,0
948,2023-08-19 16:50:11.065,0,0.0,1,0,0,0
949,2023-08-19 16:50:11.273,1,0.0,1,0,0,0
950,2023-08-19 16:50:11.481,-1,-1.0,1,0,0,0
951,2023-08-19 16:50:11.679,1,1.0,1,0,0,0
952,2023-08-19 16:50:11.881,0,-1.0,1,0,0,0
953,2023-08-19 16:50:12.078,0,1.0,1,0,0,0
954,2023-08-19 16:50:12.282,0,0.0,1,0,0,0
955,2023-08-19 16:50:12.488,0,0.0,1,0,0,0
956,2023-08-19 16:50:12.680,0,1.0,1,0,0,0
957,2023-08-19 16:50:12.889,0,-2.0,1,0,0,0
958,2023-08-19 16:50:13.077,-1,1.0,1,0,0,0
959,2023-08-19 16:50:13.281,1,0.0,1,0,0,0
960,2023-08-19 16:50:13.486,0,-1.0,1,0,0,0
961,2023-08-19 16:50:13.678,0,1.0,1,0,0,0
962,2023-08-19 16:50:13.884,0,-1.0,1,0,0,0
963,2023-08-19 16:50:14.092,0,0.0,1,0,0,0
964,2023-08-19 16:50:14.285,-1,0.0,1,0,0,0
965,2023-08-19 16:50:14.490,1,0.0,1,0,0,0
966,2023-08-19 16:50:14.682,-1,0.0,1,0,0,0
967,2023-08-19 16:50:14.895,0,0.0,1,0,0,0
968,2023-08-19 16:50:15.096,0,0.0,1,0,0,0
969,2023-08-19 16:50:15.289,0,0.0,1,0,0,0
970,2023-08-19 16:50:15.496,0,0.0,1,0,0,0
971,2023-08-19 16:50:15.686,0,0.0,1,0,0,0
972,2023-08-19 16:50:15.900,0,0.0,1,0,0,0
973,2023-08-19 16:50:16.101,0,0.0,1,0,0,0
974,2023-08-19 16:50:16.296,0,0.0,1,0,0,0
975,2023-08-19 16:50:16.501,1,0.0,1,0,0,0
976,2023-08-19 16:50:16.691,-2,0.0,1,0,0,0
977,2023-08-19 16:50:16.898,2,1.0,1,0,0,0
978,2023-08-19 16:50:17.104,0,-1.0,1,0,0,0
979,2023-08-19 16:50:17.308,0,0.0,1,0,0,0
980,2023-08-19 16:50:17.509,0,1.0,1,0,0,0
981,2023-08-19 16:50:17.710,0,-2.0,1,0,0,0
982,2023-08-19 16:50:17.907,-1,1.0,1,0,0,0
983,2023-08-19 16:50:18.105,1,0.0,1,0,0,0
984,2023-08-19 16:50:18.312,0,0.0,1,0,0,0
985,2023-08-19 16:50:18.503,0,0.0,1,0,0,0
986,2023-08-19 16:50:18.710,0,0.0,1,0,0,0
987,2023-08-19 16:50:18.907,0,0.0,1,0,0,0
988,2023-08-19 16:50:19.110,0,0.0,1,0,0,0
989,2023-08-19 16:50:19.301,-1,0.0,1,0,0,0
990,2023-08-19 16:50:19.512,1,0.0,1,0,0,0
991,2023-08-19 16:50:19.713,-1,0.0,1,0,0,0
992,2023-08-19 16:50:19.918,0,0.0,1,0,0,0
993,2023-08-19 16:50:20.109,-1,0.0,1,0,0,0
994,2023-08-19 16:50:20.313,1,0.0,1,0,0,0
995,2023-08-19 16:50:20.518,-1,0.0,1,0,0,0
996,2023-08-19 16:50:20.720,0,0.0,1,0,0,0
997,2023-08-19 16:50:20.918,0,0.0,1,0,0,0
998,2023-08-19 16:50:21.118,0,0.0,1,0,0,0
999,2023-08-19 16:50:21.322,0,0.0,1,0,0,0
1000,2023-08-19 16:50:21.523,0,0.0,0,1,0,0
1001,2023-08-19 16:50:21.715,0,0.0,0,1,0,0
1002,2023-08-19 16:50:21.924,0,0.0,0,1,0,0
1003,2023-08-19 16:50:22.128,0,0.0,0,1,0,0
1004,2023-08-19 16:50:22.325,0,0.0,0,1,0,0
1005,2023-08-19 16:50:22.528,0,0.0,0,1,0,0
1006,2023-08-19 16:50:22.730,1,0.0,0,1,0,0
1007,2023-08-19 16:50:22.933,-1,0.0,0,1,0,0
1008,2023-08-19 16:50:23.121,2,4.0,0,1,0,0
1009,2023-08-19 16:50:23.328,-7,-15.0,0,1,0,0
1010,2023-08-19 16:50:23.532,10,28.0,0,1,0,0
1011,2023-08-19 16:50:23.735,-5,-22.0,0,1,0,0
1012,2023-08-19 16:50:23.936,2,-9.0,0,1,0,0
1013,2023-08-19 16:50:24.137,-17,33.0,0,1,0,0
1014,2023-08-19 16:50:24.330,37,-22.0,0,1,0,0
1015,2023-08-19 16:50:24.537,-29,-5.0,0,1,0,0
1016,2023-08-19 16:50:24.734,-7,20.0,0,1,0,0
1017,2023-08-19 16:50:24.934,47,-11.0,0,1,0,0
1018,2023-08-19 16:50:25.134,-60,1.0,0,1,0,0
1019,2023-08-19 16:50:25.341,45,-17.0,0,1,0,0
1020,2023-08-19 16:50:25.539,-40,30.0,0,1,0,0
1021,2023-08-19 16:50:25.730,45,0.0,0,1,0,0
1022,2023-08-19 16:50:25.941,-18,-36.0,0,1,0,0
1023,2023-08-19 16:50:26.144,-34,31.0,0,1,0,0
1024,2023-08-19 16:50:26.335,57,-3.0,0,1,0,0
1025,2023-08-19 16:50:26.542,-38,-1.0,0,1,0,0
1026,2023-08-19 16:50:26.750,20,-17.0,0,1,0,0
1027,2023-08-19 16:50:26.949,-35,28.0,0,1,0,0
1028,2023-08-19 16:50:27.151,70,-9.0,0,1,0,0
1029,2023-08-19 16:50:27.340,-105,-35.0,0,1,0,0
1030,2023-08-19 16:50:27.546,117,84.0,0,1,0,0
1031,2023-08-19 16:50:27.753,-89,-96.0,0,1,0,0
1032,2023-08-19 16:50:27.949,40,65.0,0,1,0,0
1033,2023-08-19 16:50:28.149,-8,-29.0,0,1,0,0
1034,2023-08-19 16:50:28.342,-1,16.0,0,1,0,0
1035,2023-08-19 16:50:28.553,7,-15.0,0,1,0,0
1036,2023-08-19 16:50:28.755,-14,6.0,0,1,0,0
1037,2023-08-19 16:50:28.946,11,6.0,0,1,0,0
1038,2023-08-19 16:50:29.159,5,-9.0,0,1,0,0
1039,2023-08-19 16:50:29.363,-35,-4.0,0,1,0,0
1040,2023-08-19 16:50:29.553,65,30.0,0,1,0,0
1041,2023-08-19 16:50:29.758,-70,-45.0,0,1,0,0
1042,2023-08-19 16:50:29.963,35,22.0,0,1,0,0
1043,2023-08-19 16:50:30.157,12,34.0,0,1,0,0
1044,2023-08-19 16:50:30.360,-28,-85.0,0,1,0,0
1045,2023-08-19 16:50:30.565,9,117.0,0,1,0,0
1046,2023-08-19 16:50:30.755,26,-133.0,0,1,0,0
1047,2023-08-19 16:50:30.958,-70,111.0,0,1,0,0
1048,2023-08-19 16:50:31.162,88,-44.0,0,1,0,0
1049,2023-08-19 16:50:31.365,-51,-19.0,0,1,0,0
1050,2023-08-19 16:50:31.568,-17,53.0,0,1,0,0
1051,2023-08-19 16:50:31.771,79,-65.0,0,1,0,0
1052,2023-08-19 16:50:31.958,-115,58.0,0,1,0,0
1053,2023-08-19 16:50:32.177,115,-41.0,0,1,0,0
1054,2023-08-19 16:50:32.365,-78,34.0,0,1,0,0
1055,2023-08-19 16:50:32.568,38,-36.0,0,1,0,0
1056,2023-08-19 16:50:32.771,-14,30.0,0,1,0,0
1057,2023-08-19 16:50:32.975,0,-13.0,0,1,0,0
1058,2023-08-19 16:50:33.178,11,-5.0,0,1,0,0
1059,2023-08-19 16:50:33.381,-19,16.0,0,1,0,0
1060,2023-08-19 16:50:33.568,21,-18.0,0,1,0,0
1061,2023-08-19 16:50:33.772,-20,13.0,0,1,0,0
1062,2023-08-19 16:50:33.977,19,-5.0,0,1,0,0
1063,2023-08-19 16:50:34.176,-15,-2.0,0,1,0,0
1064,2023-08-19 16:50:34.377,-2,0.0,0,1,0,0
1065,2023-08-19 16:50:34.584,31,14.0,0,1,0,0
1066,2023-08-19 16:50:34.780,-49,-30.0,0,1,0,0
1067,2023-08-19 16:50:34.986,43,31.0,0,1,0,0
1068,2023-08-19 16:50:35.177,-21,-16.0,0,1,0,0
1069,2023-08-19 16:50:35.384,5,-2.0,0,1,0,0
1070,2023-08-19 16:50:35.592,-5,8.0,0,1,0,0
1071,2023-08-19 16:50:35.787,20,7.0,0,1,0,0
1072,2023-08-19 16:50:35.990,-55,-37.0,0,1,0,0
1073,2023-08-19 16:50:36.186,109,66.0,0,1,0,0
1074,2023-08-19 16:50:36.393,-147,-79.0,0,1,0,0
1075,2023-08-19 16:50:36.595,132,57.0,0,1,0,0
1076,2023-08-19 16:50:36.784,-83,-3.0,0,1,0,0
1077,2023-08-19 16:50:36.990,46,-45.0,0,1,0,0
1078,2023-08-19 16:50:37.198,-35,54.0,0,1,0,0
1079,2023-08-19 16:50:37.389,26,-33.0,0,1,0,0
1080,2023-08-19 16:50:37.600,-5,8.0,0,1,0,0
1081,2023-08-19 16:50:37.795,-10,9.0,0,1,0,0
1082,2023-08-19 16:50:37.994,14,-27.0,0,1,0,0
1083,2023-08-19 16:50:38.202,-16,34.0,0,1,0,0
1084,2023-08-19 16:50:38.396,23,-18.0,0,1,0,0
1085,2023-08-19 16:50:38.603,-27,-8.0,0,1,0,0
1086,2023-08-19 16:50:38.808,18,20.0,0,1,0,0
1087,2023-08-19 16:50:39.000,-4,-13.0,0,1,0,0
1088,2023-08-19 16:50:39.209,-3,0.0,0,1,0,0
1089,2023-08-19 16:50:39.401,0,3.0,0,1,0,0
1090,2023-08-19 16:50:39.607,3,0.0,0,1,0,0
1091,2023-08-19 16:50:39.803,-2,-1.0,0,1,0,0
1092,2023-08-19 16:50:40.006,-4,-4.0,0,1,0,0
1093,2023-08-19 16:50:40.213,10,15.0,0,1,0,0
1094,2023-08-19 16:50:40.405,-9,-24.0,0,1,0,0
1095,2023-08-19 16:50:40.610,1,21.0,0,1,0,0
1096,2023-08-19 16:50:40.804,4,-3.0,0,1,0,0
1097,2023-08-19 16:50:41.014,1,-18.0,0,1,0,0
1098,2023-08-19 16:50:41.203,-11,30.0,0,1,0,0
1099,2023-08-19 16:50:41.415,7,-28.0,0,1,0,0
1100,2023-08-19 16:50:41.618,18,26.0,0,1,0,0
1101,2023-08-19 16:50:41.819,-43,-29.0,0,1,0,0
1102,2023-08-19 16:50:42.018,47,29.0,0,1,0,0
1103,2023-08-19 16:50:42.210,-33,-19.0,0,1,0,0
1104,2023-08-19 16:50:42.421,19,7.0,0,1,0,0
1105,2023-08-19 16:50:42.626,-12,-3.0,0,1,0,0
1106,2023-08-19 16:50:42.825,6,6.0,0,1,0,0
1107,2023-08-19 16:50:43.026,1,-9.0,0,1,0,0
1108,2023-08-19 16:50:43.220,-9,7.0,0,1,0,0
1109,2023-08-19 16:50:43.425,15,-3.0,0,1,0,0
1110,2023-08-19 16:50:43.618,-16,0.0,0,1,0,0
1111,2023-08-19 16:50:43.822,14,0.0,0,1,0,0
1112,2023-08-19 16:50:44.030,-10,0.0,0,1,0,0
1113,2023-08-19 16:50:44.226,6,0.0,0,1,0,0
1114,2023-08-19 16:50:44.431,-3,0.0,0,1,0,0
1115,2023-08-19 16:50:44.622,4,1.0,0,1,0,0
1116,2023-08-19 16:50:44.830,-4,-5.0,0,1,0,0
1117,2023-08-19 16:50:45.021,2,8.0,0,1,0,0
1118,2023-08-19 16:50:45.229,-3,-13.0,0,1,0,0
1119,2023-08-19 16:50:45.424,3,17.0,0,1,0,0
1120,2023-08-19 16:50:45.634,7,-10.0,0,1,0,0
1121,2023-08-19 16:50:45.822,-19,-7.0,0,1,0,0
1122,2023-08-19 16:50:46.031,14,16.0,0,1,0,0
1123,2023-08-19 16:50:46.236,0,-3.0,0,1,0,0
1124,2023-08-19 16:50:46.424,-3,-19.0,0,1,0,0
1125,2023-08-19 16:50:46.630,-10,28.0,0,1,0,0
1126,2023-08-19 16:50:46.838,24,-18.0,0,1,0,0
1127,2023-08-19 16:50:47.045,-20,9.0,0,1,0,0
1128,2023-08-19 16:50:47.240,3,-15.0,0,1,0,0
1129,2023-08-19 16:50:47.442,6,27.0,0,1,0,0
1130,2023-08-19 16:50:47.635,1,-24.0,0,1,0,0
1131,2023-08-19 16:50:47.840,-15,1.0,0,1,0,0
1132,2023-08-19 16:50:48.045,18,28.0,0,1,0,0
1133,2023-08-19 16:50:48.235,-1,-42.0,0,1,0,0
1134,2023-08-19 16:50:48.444,-24,27.0,0,1,0,0
1135,2023-08-19 16:50:48.638,31,0.0,0,1,0,0
1136,2023-08-19 16:50:48.842,-14,-11.0,0,1,0,0
1137,2023-08-19 16:50:49.049,-4,7.0,0,1,0,0
1138,2023-08-19 16:50:49.246,6,-6.0,0,1,0,0
1139,2023-08-19 16:50:49.449,2,14.0,0,1,0,0
1140,2023-08-19 16:50:49.639,-1,-19.0,0,1,0,0
1141,2023-08-19 16:50:49.847,-9,12.0,0,1,0,0
1142,2023-08-19 16:50:50.053,22,-2.0,0,1,0,0
1143,2023-08-19 16:50:50.258,-31,-6.0,0,1,0,0
1144,2023-08-19 16:50:50.458,32,10.0,0,1,0,0
1145,2023-08-19 16:50:50.656,-30,-10.0,0,1,0,0
1146,2023-08-19 16:50:50.862,27,5.0,0,1,0,0
1147,2023-08-19 16:50:51.060,-27,-1.0,0,1,0,0
1148,2023-08-19 16:50:51.261,27,-1.0,0,1,0,0
1149,2023-08-19 16:50:51.454,-26,2.0,0,1,0,0
1150,2023-08-19 16:50:51.659,21,-1.0,0,1,0,0
1151,2023-08-19 16:50:51.858,-14,-3.0,0,1,0,0
1152,2023-08-19 16:50:52.060,5,6.0,0,1,0,0
1153,2023-08-19 16:50:52.265,3,-3.0,0,1,0,0
1154,2023-08-19 16:50:52.457,-3,0.0,0,1,0,0
1155,2023-08-19 16:50:52.665,-9,-7.0,0,1,0,0
1156,2023-08-19 16:50:52.856,23,25.0,0,1,0,0
1157,2023-08-19 16:50:53.069,-22,-34.0,0,1,0,0
1158,2023-08-19 16:50:53.269,9,26.0,0,1,0,0
1159,2023-08-19 16:50:53.463,-5,-18.0,0,1,0,0
1160,2023-08-19 16:50:53.670,15,25.0,0,1,0,0
1161,2023-08-19 16:50:53.876,-15,-34.0,0,1,0,0
1162,2023-08-19 16:50:54.075,0,24.0,0,1,0,0
1163,2023-08-19 16:50:54.277,14,0.0,0,1,0,0
1164,2023-08-19 16:50:54.467,-12,-17.0,0,1,0,0
1165,2023-08-19 16:50:54.675,6,18.0,0,1,0,0
1166,2023-08-19 16:50:54.867,-10,-14.0,0,1,0,0
1167,2023-08-19 16:50:55.081,24,11.0,0,1,0,0
1168,2023-08-19 16:50:55.273,-39,-3.0,0,1,0,0
1169,2023-08-19 16:50:55.477,54,0.0,0,1,0,0
1170,2023-08-19 16:50:55.683,-62,-11.0,0,1,0,0
1171,2023-08-19 16:50:55.874,50,24.0,0,1,0,0
1172,2023-08-19 16:50:56.081,-22,-19.0,0,1,0,0
1173,2023-08-19 16:50:56.282,1,5.0,0,1,0,0
1174,2023-08-19 16:50:56.479,3,2.0,0,1,0,0
1175,2023-08-19 16:50:56.687,-1,0.0,0,1,0,0
1176,2023-08-19 16:50:56.887,2,-8.0,0,1,0,0
1177,2023-08-19 16:50:57.084,-8,10.0,0,1,0,0
1178,2023-08-19 16:50:57.291,19,3.0,0,1,0,0
1179,2023-08-19 16:50:57.490,-22,-26.0,0,1,0,0
1180,2023-08-19 16:50:57.684,8,34.0,0,1,0,0
1181,2023-08-19 16:50:57.893,9,-17.0,0,1,0,0
1182,2023-08-19 16:50:58.096,-10,-3.0,0,1,0,0
1183,2023-08-19 16:50:58.289,-2,8.0,0,1,0,0
1184,2023-08-19 16:50:58.495,11,-5.0,0,1,0,0
1185,2023-08-19 16:50:58.689,-10,5.0,0,1,0,0
1186,2023-08-19 16:50:58.898,9,-9.0,0,1,0,0
1187,2023-08-19 16:50:59.091,-8,11.0,0,1,0,0
1188,2023-08-19 16:50:59.294,6,-11.0,0,1,0,0
1189,2023-08-19 16:50:59.486,-2,11.0,0,1,0,0
1190,2023-08-19 16:50:59.692,-1,-11.0,0,1,0,0
1191,2023-08-19 16:50:59.895,5,14.0,0,1,0,0
1192,2023-08-19 16:51:00.102,-4,-15.0,0,1,0,0
1193,2023-08-19 16:51:00.302,0,11.0,0,1,0,0
1194,2023-08-19 16:51:00.501,3,-2.0,0,1,0,0
1195,2023-08-19 16:51:00.693,-11,-10.0,0,1,0,0
1196,2023-08-19 16:51:00.902,24,27.0,0,1,0,0
1197,2023-08-19 16:51:01.111,-29,-38.0,0,1,0,0
1198,2023-08-19 16:51:01.299,21,33.0,0,1,0,0
1199,2023-08-19 16:51:01.507,-9,-18.0,0,1,0,0
1200,2023-08-19 16:51:01.713,4,5.0,0,1,0,0
1201,2023-08-19 16:51:01.904,-3,0.0,0,1,0,0
1202,2023-08-19 16:51:02.113,3,-2.0,0,1,0,0
1203,2023-08-19 16:51:02.302,-1,2.0,0,1,0,0
1204,2023-08-19 16:51:02.511,0,-1.0,0,1,0,0
1205,2023-08-19 16:51:02.704,0,0.0,0,1,0,0
1206,2023-08-19 16:51:02.910,-2,-1.0,0,1,0,0
1207,2023-08-19 16:51:03.115,5,9.0,0,1,0,0
1208,2023-08-19 16:51:03.306,-4,-17.0,0,1,0,0
1209,2023-08-19 16:51:03.513,-3,12.0,0,1,0,0
1210,2023-08-19 16:51:03.705,13,5.0,0,1,0,0
1211,2023-08-19 16:51:03.913,-18,-23.0,0,1,0,0
1212,2023-08-19 16:51:04.120,21,34.0,0,1,0,0
1213,2023-08-19 16:51:04.312,-22,-33.0,0,1,0,0
1214,2023-08-19 16:51:04.519,20,18.0,0,1,0,0
1215,2023-08-19 16:51:04.727,-23,-7.0,0,1,0,0
1216,2023-08-19 16:51:04.927,33,16.0,0,1,0,0
1217,2023-08-19 16:51:05.127,-28,-35.0,0,1,0,0
1218,2023-08-19 16:51:05.319,1,34.0,0,1,0,0
1219,2023-08-19 16:51:05.526,18,-17.0,0,1,0,0
1220,2023-08-19 16:51:05.717,-7,11.0,0,1,0,0
1221,2023-08-19 16:51:05.930,-11,-23.0,0,1,0,0
1222,2023-08-19 16:51:06.128,9,27.0,0,1,0,0
1223,2023-08-19 16:51:06.321,8,-11.0,0,1,0,0
1224,2023-08-19 16:51:06.533,-17,-7.0,0,1,0,0
1225,2023-08-19 16:51:06.720,12,10.0,0,1,0,0
1226,2023-08-19 16:51:06.927,-9,-4.0,0,1,0,0
1227,2023-08-19 16:51:07.133,11,1.0,0,1,0,0
1228,2023-08-19 16:51:07.328,-13,-5.0,0,1,0,0
1229,2023-08-19 16:51:07.532,7,8.0,0,1,0,0
1230,2023-08-19 16:51:07.737,2,-5.0,0,1,0,0
1231,2023-08-19 16:51:07.927,-7,0.0,0,1,0,0
1232,2023-08-19 16:51:08.134,4,1.0,0,1,0,0
1233,2023-08-19 16:51:08.343,1,2.0,0,1,0,0
1234,2023-08-19 16:51:08.534,-5,-7.0,0,1,0,0
1235,2023-08-19 16:51:08.738,3,11.0,0,1,0,0
1236,2023-08-19 16:51:08.944,2,-10.0,0,1,0,0
1237,2023-08-19 16:51:09.144,-8,6.0,0,1,0,0
1238,2023-08-19 16:51:09.345,13,-1.0,0,1,0,0
1239,2023-08-19 16:51:09.537,-16,-2.0,0,1,0,0
1240,2023-08-19 16:51:09.744,14,2.0,0,1,0,0
1241,2023-08-19 16:51:09.935,-9,0.0,0,1,0,0
1242,2023-08-19 16:51:10.142,3,-2.0,0,1,0,0
1243,2023-08-19 16:51:10.349,2,5.0,0,1,0,0
1244,2023-08-19 16:51:10.548,-6,-9.0,0,1,0,0
1245,2023-08-19 16:51:10.746,6,13.0,0,1,0,0
1246,2023-08-19 16:51:10.950,0,-9.0,0,1,0,0
1247,2023-08-19 16:51:11.138,-2,1.0,0,1,0,0
1248,2023-08-19 16:51:11.344,0,2.0,0,1,0,0
1249,2023-08-19 16:51:11.548,5,0.0,0,1,0,0
1250,2023-08-19 16:51:11.756,-5,-4.0,0,1,0,0
1251,2023-08-19 16:51:11.947,2,1.0,0,1,0,0
1252,2023-08-19 16:51:12.153,-2,5.0,0,1,0,0
1253,2023-08-19 16:51:12.354,6,-9.0,0,1,0,0
1254,2023-08-19 16:51:12.551,-10,12.0,0,1,0,0
1255,2023-08-19 16:51:12.758,9,-12.0,0,1,0,0
1256,2023-08-19 16:51:12.964,-6,10.0,0,1,0,0
1257,2023-08-19 16:51:13.155,0,-7.0,0,1,0,0
1258,2023-08-19 16:51:13.361,5,9.0,0,1,0,0
1259,2023-08-19 16:51:13.554,-7,-15.0,0,1,0,0
1260,2023-08-19 16:51:13.760,0,17.0,0,1,0,0
1261,2023-08-19 16:51:13.966,10,-8.0,0,1,0,0
1262,2023-08-19 16:51:14.160,-13,-7.0,0,1,0,0
1263,2023-08-19 16:51:14.369,3,25.0,0,1,0,0
1264,2023-08-19 16:51:14.567,17,-35.0,0,1,0,0
1265,2023-08-19 16:51:14.770,-37,27.0,0,1,0,0
1266,2023-08-19 16:51:14.971,36,-9.0,0,1,0,0
1267,2023-08-19 16:51:15.162,-10,1.0,0,1,0,0
1268,2023-08-19 16:51:15.372,-18,-8.0,0,1,0,0
1269,2023-08-19 16:51:15.571,27,17.0,0,1,0,0
1270,2023-08-19 16:51:15.770,-20,-20.0,0,1,0,0
1271,2023-08-19 16:51:15.961,12,21.0,0,1,0,0
1272,2023-08-19 16:51:16.170,-6,-21.0,0,1,0,0
1273,2023-08-19 16:51:16.378,-2,15.0,0,1,0,0
1274,2023-08-19 16:51:16.566,9,-1.0,0,1,0,0
1275,2023-08-19 16:51:16.773,-9,-11.0,0,1,0,0
1276,2023-08-19 16:51:16.980,1,17.0,0,1,0,0
1277,2023-08-19 16:51:17.182,8,-12.0,0,1,0,0
1278,2023-08-19 16:51:17.383,-12,4.0,0,1,0,0
1279,2023-08-19 16:51:17.583,8,-2.0,0,1,0,0
1280,2023-08-19 16:51:17.775,-4,6.0,0,1,0,0
1281,2023-08-19 16:51:17.984,7,-7.0,0,1,0,0
1282,2023-08-19 16:51:18.173,-10,1.0,0,1,0,0
1283,2023-08-19 16:51:18.380,5,2.0,0,1,0,0
1284,2023-08-19 16:51:18.584,2,0.0,0,1,0,0
1285,2023-08-19 16:51:18.786,-7,-3.0,0,1,0,0
1286,2023-08-19 16:51:18.988,5,4.0,0,1,0,0
1287,2023-08-19 16:51:19.178,3,3.0,0,1,0,0
1288,2023-08-19 16:51:19.390,-21,-24.0,0,1,0,0
1289,2023-08-19 16:51:19.577,41,51.0,0,1,0,0
1290,2023-08-19 16:51:19.784,-42,-61.0,0,1,0,0
1291,2023-08-19 16:51:19.988,19,38.0,0,1,0,0
1292,2023-08-19 16:51:20.196,4,4.0,0,1,0,0
1293,2023-08-19 16:51:20.390,-9,-32.0,0,1,0,0
1294,2023-08-19 16:51:20.597,-5,28.0,0,1,0,0
1295,2023-08-19 16:51:20.793,17,-3.0,0,1,0,0
1296,2023-08-19 16:51:20.996,-13,-15.0,0,1,0,0
1297,2023-08-19 16:51:21.187,2,19.0,0,1,0,0
1298,2023-08-19 16:51:21.394,2,-15.0,0,1,0,0
1299,2023-08-19 16:51:21.601,0,12.0,0,1,0,0
1300,2023-08-19 16:51:21.799,-2,-9.0,0,1,0,0
1301,2023-08-19 16:51:22.000,2,5.0,0,1,0,0
1302,2023-08-19 16:51:22.192,0,0.0,0,1,0,0
1303,2023-08-19 16:51:22.398,0,-2.0,0,1,0,0
1304,2023-08-19 16:51:22.605,0,3.0,0,1,0,0
1305,2023-08-19 16:51:22.800,0,-5.0,0,1,0,0
1306,2023-08-19 16:51:23.005,-3,13.0,0,1,0,0
1307,2023-08-19 16:51:23.195,14,-21.0,0,1,0,0
1308,2023-08-19 16:51:23.404,-26,18.0,0,1,0,0
1309,2023-08-19 16:51:23.608,26,-7.0,0,1,0,0
1310,2023-08-19 16:51:23.803,-15,-1.0,0,1,0,0
1311,2023-08-19 16:51:24.008,4,1.0,0,1,0,0
1312,2023-08-19 16:51:24.214,0,1.0,0,1,0,0
1313,2023-08-19 16:51:24.413,0,-6.0,0,1,0,0
1314,2023-08-19 16:51:24.611,0,8.0,0,1,0,0
1315,2023-08-19 16:51:24.817,5,-4.0,0,1,0,0
1316,2023-08-19 16:51:25.006,-11,-4.0,0,1,0,0
1317,2023-08-19 16:51:25.216,11,12.0,0,1,0,0
1318,2023-08-19 16:51:25.407,-4,-12.0,0,1,0,0
1319,2023-08-19 16:51:25.613,-2,5.0,0,1,0,0
1320,2023-08-19 16:51:25.821,3,1.0,0,1,0,0
1321,2023-08-19 16:51:26.016,0,-2.0,0,1,0,0
1322,2023-08-19 16:51:26.208,-2,1.0,0,1,0,0
1323,2023-08-19 16:51:26.420,0,-4.0,0,1,0,0
1324,2023-08-19 16:51:26.623,3,12.0,0,1,0,0
1325,2023-08-19 16:51:26.821,-1,-18.0,0,1,0,0
1326,2023-08-19 16:51:27.025,-6,14.0,0,1,0,0
1327,2023-08-19 16:51:27.224,12,-2.0,0,1,0,0
1328,2023-08-19 16:51:27.426,-7,-4.0,0,1,0,0
1329,2023-08-19 16:51:27.626,-1,3.0,0,1,0,0
1330,2023-08-19 16:51:27.818,4,0.0,0,1,0,0
1331,2023-08-19 16:51:28.025,0,-1.0,0,1,0,0
1332,2023-08-19 16:51:28.218,-3,-2.0,0,1,0,0
1333,2023-08-19 16:51:28.421,6,6.0,0,1,0,0
1334,2023-08-19 16:51:28.631,-4,-10.0,0,1,0,0
1335,2023-08-19 16:51:28.821,-3,7.0,0,1,0,0
1336,2023-08-19 16:51:29.034,10,0.0,0,1,0,0
1337,2023-08-19 16:51:29.226,-9,-6.0,0,1,0,0
1338,2023-08-19 16:51:29.432,1,5.0,0,1,0,0
1339,2023-08-19 16:51:29.622,3,0.0,0,1,0,0
1340,2023-08-19 16:51:29.828,0,1.0,0,1,0,0
1341,2023-08-19 16:51:30.035,-7,-10.0,0,1,0,0
1342,2023-08-19 16:51:30.228,12,21.0,0,1,0,0
1343,2023-08-19 16:51:30.432,-9,-20.0,0,1,0,0
1344,2023-08-19 16:51:30.642,2,7.0,0,1,0,0
1345,2023-08-19 16:51:30.836,-4,6.0,0,1,0,0
1346,2023-08-19 16:51:31.041,13,-8.0,0,1,0,0
1347,2023-08-19 16:51:31.229,-16,1.0,0,1,0,0
1348,2023-08-19 16:51:31.441,8,1.0,0,1,0,0
1349,2023-08-19 16:51:31.643,0,2.0,0,1,0,0
1350,2023-08-19 16:51:31.841,0,-6.0,0,1,0,0
1351,2023-08-19 16:51:32.041,-4,5.0,0,1,0,0
1352,2023-08-19 16:51:32.247,8,-2.0,0,1,0,0
1353,2023-08-19 16:51:32.439,-5,1.0,0,1,0,0
1354,2023-08-19 16:51:32.646,-1,-6.0,0,1,0,0
1355,2023-08-19 16:51:32.852,5,17.0,0,1,0,0
1356,2023-08-19 16:51:33.053,6,-23.0,0,1,0,0
1357,2023-08-19 16:51:33.255,-28,10.0,0,1,0,0
1358,2023-08-19 16:51:33.454,37,10.0,0,1,0,0
1359,2023-08-19 16:51:33.646,-22,-18.0,0,1,0,0
1360,2023-08-19 16:51:33.853,0,5.0,0,1,0,0
1361,2023-08-19 16:51:34.055,8,10.0,0,1,0,0
1362,2023-08-19 16:51:34.252,-1,-14.0,0,1,0,0
1363,2023-08-19 16:51:34.444,-5,9.0,0,1,0,0
1364,2023-08-19 16:51:34.656,5,-4.0,0,1,0,0
1365,2023-08-19 16:51:34.861,0,2.0,0,1,0,0
1366,2023-08-19 16:51:35.051,-2,0.0,0,1,0,0
1367,2023-08-19 16:51:35.258,3,-3.0,0,1,0,0
1368,2023-08-19 16:51:35.454,-6,5.0,0,1,0,0
1369,2023-08-19 16:51:35.657,8,-3.0,0,1,0,0
1370,2023-08-19 16:51:35.863,-7,3.0,0,1,0,0
1371,2023-08-19 16:51:36.058,5,-10.0,0,1,0,0
1372,2023-08-19 16:51:36.265,-12,17.0,0,1,0,0
1373,2023-08-19 16:51:36.455,24,-12.0,0,1,0,0
1374,2023-08-19 16:51:36.661,-27,-1.0,0,1,0,0
1375,2023-08-19 16:51:36.871,14,7.0,0,1,0,0
1376,2023-08-19 16:51:37.068,2,-1.0,0,1,0,0
1377,2023-08-19 16:51:37.271,-5,0.0,0,1,0,0
1378,2023-08-19 16:51:37.469,1,-10.0,0,1,0,0
1379,2023-08-19 16:51:37.670,-7,15.0,0,1,0,0
1380,2023-08-19 16:51:37.875,19,-5.0,0,1,0,0
1381,2023-08-19 16:51:38.067,-18,-6.0,0,1,0,0
1382,2023-08-19 16:51:38.274,5,6.0,0,1,0,0
1383,2023-08-19 16:51:38.465,5,1.0,0,1,0,0
1384,2023-08-19 16:51:38.675,-13,-15.0,0,1,0,0
1385,2023-08-19 16:51:38.864,21,30.0,0,1,0,0
1386,2023-08-19 16:51:39.076,-23,-33.0,0,1,0,0
1387,2023-08-19 16:51:39.279,16,17.0,0,1,0,0
1388,2023-08-19 16:51:39.471,-12,3.0,0,1,0,0
1389,2023-08-19 16:51:39.678,17,-6.0,0,1,0,0
1390,2023-08-19 16:51:39.868,-19,-3.0,0,1,0,0
1391,2023-08-19 16:51:40.082,9,10.0,0,1,0,0
1392,2023-08-19 16:51:40.283,3,-5.0,0,1,0,0
1393,2023-08-19 16:51:40.473,-7,-2.0,0,1,0,0
1394,2023-08-19 16:51:40.682,7,12.0,0,1,0,0
1395,2023-08-19 16:51:40.889,-7,-22.0,0,1,0,0
1396,2023-08-19 16:51:41.079,5,27.0,0,1,0,0
1397,2023-08-19 16:51:41.286,0,-18.0,0,1,0,0
1398,2023-08-19 16:51:41.481,-5,1.0,0,1,0,0
1399,2023-08-19 16:51:41.685,2,10.0,0,1,0,0
1400,2023-08-19 16:51:41.891,3,-12.0,0,1,0,0
1401,2023-08-19 16:51:42.088,-3,10.0,0,1,0,0
1402,2023-08-19 16:51:42.290,-3,-9.0,0,1,0,0
1403,2023-08-19 16:51:42.482,10,9.0,0,1,0,0
1404,2023-08-19 16:51:42.689,-14,-8.0,0,1,0,0
1405,2023-08-19 16:51:42.897,16,7.0,0,1,0,0
1406,2023-08-19 16:51:43.097,-16,-7.0,0,1,0,0
1407,2023-08-19 16:51:43.296,12,7.0,0,1,0,0
1408,2023-08-19 16:51:43.485,-7,-4.0,0,1,0,0
1409,2023-08-19 16:51:43.691,4,3.0,0,1,0,0
1410,2023-08-19 16:51:43.900,-10,-12.0,0,1,0,0
1411,2023-08-19 16:51:44.092,19,28.0,0,1,0,0
1412,2023-08-19 16:51:44.301,-17,-35.0,0,1,0,0
1413,2023-08-19 16:51:44.506,3,21.0,0,1,0,0
1414,2023-08-19 16:51:44.700,4,-1.0,0,1,0,0
1415,2023-08-19 16:51:44.906,-2,-8.0,0,1,0,0
1416,2023-08-19 16:51:45.107,6,13.0,0,1,0,0
1417,2023-08-19 16:51:45.307,-17,-23.0,0,1,0,0
1418,2023-08-19 16:51:45.497,24,33.0,0,1,0,0
1419,2023-08-19 16:51:45.703,-21,-31.0,0,1,0,0
1420,2023-08-19 16:51:45.908,8,13.0,0,1,0,0
1421,2023-08-19 16:51:46.098,13,20.0,0,1,0,0
1422,2023-08-19 16:51:46.302,-24,-49.0,0,1,0,0
1423,2023-08-19 16:51:46.506,13,50.0,0,1,0,0
1424,2023-08-19 16:51:46.709,1,-26.0,0,1,0,0
1425,2023-08-19 16:51:46.912,0,6.0,0,1,0,0
1426,2023-08-19 16:51:47.100,-14,-4.0,0,1,0,0
1427,2023-08-19 16:51:47.304,20,8.0,0,1,0,0
1428,2023-08-19 16:51:47.507,-12,-4.0,0,1,0,0
1429,2023-08-19 16:51:47.716,3,-4.0,0,1,0,0
1430,2023-08-19 16:51:47.915,-1,9.0,0,1,0,0
1431,2023-08-19 16:51:48.118,6,-6.0,0,1,0,0
1432,2023-08-19 16:51:48.321,-8,0.0,0,1,0,0
1433,2023-08-19 16:51:48.524,3,6.0,0,1,0,0
1434,2023-08-19 16:51:48.713,7,-6.0,0,1,0,0
1435,2023-08-19 16:51:48.916,-17,4.0,0,1,0,0
1436,2023-08-19 16:51:49.119,21,-3.0,0,1,0,0
1437,2023-08-19 16:51:49.322,-20,3.0,0,1,0,0
1438,2023-08-19 16:51:49.525,15,-3.0,0,1,0,0
1439,2023-08-19 16:51:49.713,-3,5.0,0,1,0,0
1440,2023-08-19 16:51:49.916,-10,-10.0,0,1,0,0
1441,2023-08-19 16:51:50.119,17,13.0,0,1,0,0
1442,2023-08-19 16:51:50.324,-13,-8.0,0,1,0,0
1443,2023-08-19 16:51:50.528,7,1.0,0,1,0,0
1444,2023-08-19 16:51:50.731,-3,2.0,0,1,0,0
1445,2023-08-19 16:51:50.920,-3,-1.0,0,1,0,0
1446,2023-08-19 16:51:51.123,12,0.0,0,1,0,0
1447,2023-08-19 16:51:51.326,-16,1.0,0,1,0,0
1448,2023-08-19 16:51:51.529,13,-5.0,0,1,0,0
1449,2023-08-19 16:51:51.732,-10,4.0,0,1,0,0
1450,2023-08-19 16:51:51.935,9,1.0,0,1,0,0
1451,2023-08-19 16:51:52.139,-7,-7.0,0,1,0,0
1452,2023-08-19 16:51:52.342,2,7.0,0,1,0,0
1453,2023-08-19 16:51:52.541,0,-3.0,0,1,0,0
1454,2023-08-19 16:51:52.738,0,0.0,0,1,0,0
1455,2023-08-19 16:51:52.943,0,2.0,0,1,0,0
1456,2023-08-19 16:51:53.143,3,-3.0,0,1,0,0
1457,2023-08-19 16:51:53.338,-6,6.0,0,1,0,0
1458,2023-08-19 16:51:53.546,14,-9.0,0,1,0,0
1459,2023-08-19 16:51:53.738,-29,0.0,0,1,0,0
1460,2023-08-19 16:51:53.946,42,17.0,0,1,0,0
1461,2023-08-19 16:51:54.141,-38,-27.0,0,1,0,0
1462,2023-08-19 16:51:54.348,20,19.0,0,1,0,0
1463,2023-08-19 16:51:54.549,-4,-5.0,0,1,0,0
1464,2023-08-19 16:51:54.746,-1,-3.0,0,1,0,0
1465,2023-08-19 16:51:54.937,1,3.0,0,1,0,0
1466,2023-08-19 16:51:55.143,-1,-2.0,0,1,0,0
1467,2023-08-19 16:51:55.353,6,3.0,0,1,0,0
1468,2023-08-19 16:51:55.552,-15,-10.0,0,1,0,0
1469,2023-08-19 16:51:55.751,25,22.0,0,1,0,0
1470,2023-08-19 16:51:55.956,-31,-35.0,0,1,0,0
1471,2023-08-19 16:51:56.148,26,37.0,0,1,0,0
1472,2023-08-19 16:51:56.356,-12,-25.0,0,1,0,0
1473,2023-08-19 16:51:56.548,3,10.0,0,1,0,0
1474,2023-08-19 16:51:56.756,-2,-6.0,0,1,0,0
1475,2023-08-19 16:51:56.951,0,6.0,0,1,0,0
1476,2023-08-19 16:51:57.156,5,-1.0,0,1,0,0
1477,2023-08-19 16:51:57.361,-10,-7.0,0,1,0,0
1478,2023-08-19 16:51:57.563,10,13.0,0,1,0,0
1479,2023-08-19 16:51:57.757,-5,-14.0,0,1,0,0
1480,2023-08-19 16:51:57.965,3,10.0,0,1,0,0
1481,2023-08-19 16:51:58.157,-11,-14.0,0,1,0,0
1482,2023-08-19 16:51:58.363,24,31.0,0,1,0,0
1483,2023-08-19 16:51:58.558,-24,-47.0,0,1,0,0
1484,2023-08-19 16:51:58.761,-1,44.0,0,1,0,0
1485,2023-08-19 16:51:58.969,32,-20.0,0,1,0,0
1486,2023-08-19 16:51:59.173,-38,0.0,0,1,0,0
1487,2023-08-19 16:51:59.372,16,-2.0,0,1,0,0
1488,2023-08-19 16:51:59.570,5,15.0,0,1,0,0
1489,2023-08-19 16:51:59.764,-9,-19.0,0,1,0,0
1490,2023-08-19 16:51:59.966,0,5.0,0,1,0,0
1491,2023-08-19 16:52:00.174,7,13.0,0,1,0,0
1492,2023-08-19 16:52:00.377,-1,-20.0,0,1,0,0
1493,2023-08-19 16:52:00.579,-8,10.0,0,1,0,0
1494,2023-08-19 16:52:00.774,9,0.0,0,1,0,0
1495,2023-08-19 16:52:00.973,-1,-1.0,0,1,0,0
1496,2023-08-19 16:52:01.168,-4,-2.0,0,1,0,0
1497,2023-08-19 16:52:01.373,2,3.0,0,1,0,0
1498,2023-08-19 16:52:01.578,2,0.0,0,1,0,0
1499,2023-08-19 16:52:01.769,-1,-3.0,0,1,0,0
1500,2023-08-19 16:52:01.972,-1,0.0,0,1,0,0
1501,2023-08-19 16:52:02.182,3,3.0,0,1,0,0
1502,2023-08-19 16:52:02.383,0,-5.0,0,1,0,0
1503,2023-08-19 16:52:02.578,-4,3.0,0,1,0,0
1504,2023-08-19 16:52:02.781,8,1.0,0,1,0,0
1505,2023-08-19 16:52:02.986,-15,-9.0,0,1,0,0
1506,2023-08-19 16:52:03.176,21,19.0,0,1,0,0
1507,2023-08-19 16:52:03.384,-21,-25.0,0,1,0,0
1508,2023-08-19 16:52:03.592,14,20.0,0,1,0,0
1509,2023-08-19 16:52:03.781,-2,-2.0,0,1,0,0
1510,2023-08-19 16:52:03.988,-10,-21.0,0,1,0,0
1511,2023-08-19 16:52:04.194,10,31.0,0,1,0,0
1512,2023-08-19 16:52:04.393,0,-16.0,0,1,0,0
1513,2023-08-19 16:52:04.596,-6,-7.0,0,1,0,0
1514,2023-08-19 16:52:04.790,2,21.0,0,1,0,0
1515,2023-08-19 16:52:04.996,7,-21.0,0,1,0,0
1516,2023-08-19 16:52:05.188,-21,9.0,0,1,0,0
1517,2023-08-19 16:52:05.394,35,6.0,0,1,0,0
1518,2023-08-19 16:52:05.600,-42,-15.0,0,1,0,0
1519,2023-08-19 16:52:05.794,38,12.0,0,1,0,0
1520,2023-08-19 16:52:06.000,-27,-4.0,0,1,0,0
1521,2023-08-19 16:52:06.201,16,-3.0,0,1,0,0
1522,2023-08-19 16:52:06.400,-8,7.0,0,1,0,0
1523,2023-08-19 16:52:06.593,5,-8.0,0,1,0,0
1524,2023-08-19 16:52:06.799,-7,4.0,0,1,0,0
1525,2023-08-19 16:52:07.009,12,5.0,0,1,0,0
1526,2023-08-19 16:52:07.207,-21,-21.0,0,1,0,0
1527,2023-08-19 16:52:07.407,26,38.0,0,1,0,0
1528,2023-08-19 16:52:07.598,-19,-42.0,0,1,0,0
1529,2023-08-19 16:52:07.805,3,26.0,0,1,0,0
1530,2023-08-19 16:52:08.012,6,-4.0,0,1,0,0
1531,2023-08-19 16:52:08.204,-4,-8.0,0,1,0,0
1532,2023-08-19 16:52:08.412,-1,12.0,0,1,0,0
1533,2023-08-19 16:52:08.602,3,-9.0,0,1,0,0
1534,2023-08-19 16:52:08.808,-3,3.0,0,1,0,0
1535,2023-08-19 16:52:09.014,2,1.0,0,1,0,0
1536,2023-08-19 16:52:09.210,0,-3.0,0,1,0,0
1537,2023-08-19 16:52:09.415,-3,5.0,0,1,0,0
1538,2023-08-19 16:52:09.608,9,-7.0,0,1,0,0
1539,2023-08-19 16:52:09.810,-16,4.0,0,1,0,0
1540,2023-08-19 16:52:10.017,18,3.0,0,1,0,0
1541,2023-08-19 16:52:10.220,-9,-7.0,0,1,0,0
1542,2023-08-19 16:52:10.417,-4,3.0,0,1,0,0
1543,2023-08-19 16:52:10.607,10,2.0,0,1,0,0
1544,2023-08-19 16:52:10.813,-5,-2.0,0,1,0,0
1545,2023-08-19 16:52:11.020,0,-2.0,0,1,0,0
1546,2023-08-19 16:52:11.228,1,5.0,0,1,0,0
1547,2023-08-19 16:52:11.420,2,-3.0,0,1,0,0
1548,2023-08-19 16:52:11.628,-5,-1.0,0,1,0,0
1549,2023-08-19 16:52:11.828,5,5.0,0,1,0,0
1550,2023-08-19 16:52:12.020,-4,-6.0,0,1,0,0
1551,2023-08-19 16:52:12.225,3,5.0,0,1,0,0
1552,2023-08-19 16:52:12.432,-3,-4.0,0,1,0,0
1553,2023-08-19 16:52:12.622,2,4.0,0,1,0,0
1554,2023-08-19 16:52:12.832,0,-4.0,0,1,0,0
1555,2023-08-19 16:52:13.032,-1,2.0,0,1,0,0
1556,2023-08-19 16:52:13.234,2,0.0,0,1,0,0
1557,2023-08-19 16:52:13.429,-1,1.0,0,1,0,0
1558,2023-08-19 16:52:13.636,2,-5.0,0,1,0,0
1559,2023-08-19 16:52:13.828,-8,5.0,0,1,0,0
1560,2023-08-19 16:52:14.037,13,-1.0,0,1,0,0
1561,2023-08-19 16:52:14.235,-10,-1.0,0,1,0,0
1562,2023-08-19 16:52:14.435,4,0.0,0,1,0,0
1563,2023-08-19 16:52:14.630,0,5.0,0,1,0,0
1564,2023-08-19 16:52:14.833,-1,-11.0,0,1,0,0
1565,2023-08-19 16:52:15.041,-2,12.0,0,1,0,0
1566,2023-08-19 16:52:15.234,5,-10.0,0,1,0,0
1567,2023-08-19 16:52:15.441,-6,5.0,0,1,0,0
1568,2023-08-19 16:52:15.636,5,0.0,0,1,0,0
1569,2023-08-19 16:52:15.846,-1,-4.0,0,1,0,0
1570,2023-08-19 16:52:16.047,-2,4.0,0,1,0,0
1571,2023-08-19 16:52:16.240,4,-1.0,0,1,0,0
1572,2023-08-19 16:52:16.449,-2,-3.0,0,1,0,0
1573,2023-08-19 16:52:16.641,-6,0.0,0,1,0,0
1574,2023-08-19 16:52:16.849,16,9.0,0,1,0,0
1575,2023-08-19 16:52:17.039,-16,-16.0,0,1,0,0
1576,2023-08-19 16:52:17.247,6,13.0,0,1,0,0
1577,2023-08-19 16:52:17.450,1,-4.0,0,1,0,0
1578,2023-08-19 16:52:17.641,-1,0.0,0,1,0,0
1579,2023-08-19 16:52:17.845,0,0.0,0,1,0,0
1580,2023-08-19 16:52:18.051,2,1.0,0,1,0,0
1581,2023-08-19 16:52:18.243,-3,-2.0,0,1,0,0
1582,2023-08-19 16:52:18.452,4,2.0,0,1,0,0
1583,2023-08-19 16:52:18.656,-5,-3.0,0,1,0,0
1584,2023-08-19 16:52:18.847,4,4.0,0,1,0,0
1585,2023-08-19 16:52:19.059,0,-2.0,0,1,0,0
1586,2023-08-19 16:52:19.245,-6,0.0,0,1,0,0
1587,2023-08-19 16:52:19.451,8,2.0,0,1,0,0
1588,2023-08-19 16:52:19.658,-5,-1.0,0,1,0,0
1589,2023-08-19 16:52:19.864,2,7.0,0,1,0,0
1590,2023-08-19 16:52:20.063,5,-21.0,0,1,0,0
1591,2023-08-19 16:52:20.262,-22,28.0,0,1,0,0
1592,2023-08-19 16:52:20.460,39,-18.0,0,1,0,0
1593,2023-08-19 16:52:20.660,-37,3.0,0,1,0,0
1594,2023-08-19 16:52:20.869,17,3.0,0,1,0,0
1595,2023-08-19 16:52:21.060,3,0.0,0,1,0,0
1596,2023-08-19 16:52:21.267,-12,-2.0,0,1,0,0
1597,2023-08-19 16:52:21.458,11,-3.0,0,1,0,0
1598,2023-08-19 16:52:21.670,-8,8.0,0,1,0,0
1599,2023-08-19 16:52:21.871,8,0.0,0,1,0,0
1600,2023-08-19 16:52:22.063,1,-12.0,0,1,0,0
1601,2023-08-19 16:52:22.271,-21,0.0,0,1,0,0
1602,2023-08-19 16:52:22.462,21,24.0,0,1,0,0
1603,2023-08-19 16:52:22.669,7,-25.0,0,1,0,0
1604,2023-08-19 16:52:22.876,-35,5.0,0,1,0,0
1605,2023-08-19 16:52:23.066,33,8.0,0,1,0,0
1606,2023-08-19 16:52:23.270,-11,-1.0,0,1,0,0
1607,2023-08-19 16:52:23.478,-4,-10.0,0,1,0,0
1608,2023-08-19 16:52:23.676,6,12.0,0,1,0,0
1609,2023-08-19 16:52:23.879,-4,-4.0,0,1,0,0
1610,2023-08-19 16:52:24.075,10,1.0,0,1,0,0
1611,2023-08-19 16:52:24.278,-24,-10.0,0,1,0,0
1612,2023-08-19 16:52:24.485,30,23.0,0,1,0,0
1613,2023-08-19 16:52:24.687,-22,-21.0,0,1,0,0
1614,2023-08-19 16:52:24.884,11,2.0,0,1,0,0
1615,2023-08-19 16:52:25.079,-10,12.0,0,1,0,0
1616,2023-08-19 16:52:25.282,17,-10.0,0,1,0,0
1617,2023-08-19 16:52:25.489,-16,0.0,0,1,0,0
1618,2023-08-19 16:52:25.690,4,3.0,0,1,0,0
1619,2023-08-19 16:52:25.891,8,1.0,0,1,0,0
1620,2023-08-19 16:52:26.081,-10,-7.0,0,1,0,0
1621,2023-08-19 16:52:26.290,5,7.0,0,1,0,0
1622,2023-08-19 16:52:26.478,0,-4.0,0,1,0,0
1623,2023-08-19 16:52:26.685,0,2.0,0,1,0,0
1624,2023-08-19 16:52:26.892,0,-2.0,0,1,0,0
1625,2023-08-19 16:52:27.081,-1,-1.0,0,1,0,0
1626,2023-08-19 16:52:27.287,5,9.0,0,1,0,0
1627,2023-08-19 16:52:27.493,-4,-16.0,0,1,0,0
1628,2023-08-19 16:52:27.686,6,21.0,0,1,0,0
1629,2023-08-19 16:52:27.897,-18,-31.0,0,1,0,0
1630,2023-08-19 16:52:28.102,28,44.0,0,1,0,0
1631,2023-08-19 16:52:28.293,-25,-41.0,0,1,0,0
1632,2023-08-19 16:52:28.503,14,21.0,0,1,0,0
1633,2023-08-19 16:52:28.693,-10,0.0,0,1,0,0
1634,2023-08-19 16:52:28.900,14,-5.0,0,1,0,0
1635,2023-08-19 16:52:29.091,-13,2.0,0,1,0,0
1636,2023-08-19 16:52:29.297,4,0.0,0,1,0,0
1637,2023-08-19 16:52:29.504,0,2.0,0,1,0,0
1638,2023-08-19 16:52:29.695,8,0.0,0,1,0,0
1639,2023-08-19 16:52:29.898,-19,-9.0,0,1,0,0
1640,2023-08-19 16:52:30.107,19,14.0,0,1,0,0
1641,2023-08-19 16:52:30.302,-8,-8.0,0,1,0,0
1642,2023-08-19 16:52:30.509,-1,-2.0,0,1,0,0
1643,2023-08-19 16:52:30.701,3,12.0,0,1,0,0
1644,2023-08-19 16:52:30.912,-1,-14.0,0,1,0,0
1645,2023-08-19 16:52:31.115,0,11.0,0,1,0,0
1646,2023-08-19 16:52:31.307,0,-6.0,0,1,0,0
1647,2023-08-19 16:52:31.515,1,2.0,0,1,0,0
1648,2023-08-19 16:52:31.707,-2,0.0,0,1,0,0
1649,2023-08-19 16:52:31.920,3,0.0,0,1,0,0
1650,2023-08-19 16:52:32.112,-2,0.0,0,1,0,0
1651,2023-08-19 16:52:32.320,1,-1.0,0,1,0,0
1652,2023-08-19 16:52:32.508,-1,2.0,0,1,0,0
1653,2023-08-19 16:52:32.716,1,-3.0,0,1,0,0
1654,2023-08-19 16:52:32.912,-1,7.0,0,1,0,0
1655,2023-08-19 16:52:33.123,3,-10.0,0,1,0,0
1656,2023-08-19 16:52:33.324,-9,10.0,0,1,0,0
1657,2023-08-19 16:52:33.517,14,-8.0,0,1,0,0
1658,2023-08-19 16:52:33.723,-15,6.0,0,1,0,0
1659,2023-08-19 16:52:33.915,12,-4.0,0,1,0,0
1660,2023-08-19 16:52:34.122,-6,3.0,0,1,0,0
1661,2023-08-19 16:52:34.313,0,-3.0,0,1,0,0
1662,2023-08-19 16:52:34.520,4,4.0,0,1,0,0
1663,2023-08-19 16:52:34.726,-4,-2.0,0,1,0,0
1664,2023-08-19 16:52:34.917,3,0.0,0,1,0,0
1665,2023-08-19 16:52:35.127,-2,0.0,0,1,0,0
1666,2023-08-19 16:52:35.318,1,0.0,0,1,0,0
1667,2023-08-19 16:52:35.532,-1,0.0,0,1,0,0
1668,2023-08-19 16:52:35.733,1,0.0,0,1,0,0
1669,2023-08-19 16:52:35.938,-3,0.0,0,1,0,0
1670,2023-08-19 16:52:36.133,12,5.0,0,1,0,0
1671,2023-08-19 16:52:36.336,-26,-20.0,0,1,0,0
1672,2023-08-19 16:52:36.527,32,36.0,0,1,0,0
1673,2023-08-19 16:52:36.735,-19,-32.0,0,1,0,0
1674,2023-08-19 16:52:36.941,3,12.0,0,1,0,0
1675,2023-08-19 16:52:37.139,-8,-3.0,0,1,0,0
1676,2023-08-19 16:52:37.341,23,16.0,0,1,0,0
1677,2023-08-19 16:52:37.537,-24,-29.0,0,1,0,0
1678,2023-08-19 16:52:37.742,7,24.0,0,1,0,0
1679,2023-08-19 16:52:37.934,3,-8.0,0,1,0,0
1680,2023-08-19 16:52:38.145,1,1.0,0,1,0,0
1681,2023-08-19 16:52:38.346,-14,-6.0,0,1,0,0
1682,2023-08-19 16:52:38.540,21,16.0,0,1,0,0
1683,2023-08-19 16:52:38.744,-16,-18.0,0,1,0,0
1684,2023-08-19 16:52:38.936,3,8.0,0,1,0,0
1685,2023-08-19 16:52:39.147,3,2.0,0,1,0,0
1686,2023-08-19 16:52:39.351,-2,-3.0,0,1,0,0
1687,2023-08-19 16:52:39.546,2,1.0,0,1,0,0
1688,2023-08-19 16:52:39.747,-8,-2.0,0,1,0,0
1689,2023-08-19 16:52:39.955,12,7.0,0,1,0,0
1690,2023-08-19 16:52:40.148,-9,-8.0,0,1,0,0
1691,2023-08-19 16:52:40.357,1,1.0,0,1,0,0
1692,2023-08-19 16:52:40.558,2,5.0,0,1,0,0
1693,2023-08-19 16:52:40.749,0,-5.0,0,1,0,0
1694,2023-08-19 16:52:40.957,-1,2.0,0,1,0,0
1695,2023-08-19 16:52:41.158,0,0.0,0,1,0,0
1696,2023-08-19 16:52:41.359,3,0.0,0,1,0,0
1697,2023-08-19 16:52:41.552,-4,-2.0,0,1,0,0
1698,2023-08-19 16:52:41.756,2,1.0,0,1,0,0
1699,2023-08-19 16:52:41.950,2,5.0,0,1,0,0
1700,2023-08-19 16:52:42.158,-3,-13.0,0,1,0,0
1701,2023-08-19 16:52:42.362,-2,14.0,0,1,0,0
1702,2023-08-19 16:52:42.561,10,-8.0,0,1,0,0
1703,2023-08-19 16:52:42.760,-12,2.0,0,1,0,0
1704,2023-08-19 16:52:42.965,7,-1.0,0,1,0,0
1705,2023-08-19 16:52:43.165,-1,5.0,0,1,0,0
1706,2023-08-19 16:52:43.366,0,-6.0,0,1,0,0
1707,2023-08-19 16:52:43.556,-1,1.0,0,1,0,0
1708,2023-08-19 16:52:43.764,3,5.0,0,1,0,0
1709,2023-08-19 16:52:43.974,-3,-9.0,0,1,0,0
1710,2023-08-19 16:52:44.167,1,7.0,0,1,0,0
1711,2023-08-19 16:52:44.369,0,-3.0,0,1,0,0
1712,2023-08-19 16:52:44.575,1,1.0,0,1,0,0
1713,2023-08-19 16:52:44.768,-3,-1.0,0,1,0,0
1714,2023-08-19 16:52:44.974,2,1.0,0,1,0,0
1715,2023-08-19 16:52:45.173,-2,0.0,0,1,0,0
1716,2023-08-19 16:52:45.371,2,0.0,0,1,0,0
1717,2023-08-19 16:52:45.578,-2,0.0,0,1,0,0
1718,2023-08-19 16:52:45.768,0,-2.0,0,1,0,0
1719,2023-08-19 16:52:45.975,0,5.0,0,1,0,0
1720,2023-08-19 16:52:46.181,-1,-6.0,0,1,0,0
1721,2023-08-19 16:52:46.375,1,7.0,0,1,0,0
1722,2023-08-19 16:52:46.580,-3,-10.0,0,1,0,0
1723,2023-08-19 16:52:46.771,5,16.0,0,1,0,0
1724,2023-08-19 16:52:46.984,-3,-18.0,0,1,0,0
1725,2023-08-19 16:52:47.185,-1,8.0,0,1,0,0
1726,2023-08-19 16:52:47.377,2,5.0,0,1,0,0
1727,2023-08-19 16:52:47.583,5,-9.0,0,1,0,0
1728,2023-08-19 16:52:47.775,-11,1.0,0,1,0,0
1729,2023-08-19 16:52:47.985,7,6.0,0,1,0,0
1730,2023-08-19 16:52:48.193,3,-4.0,0,1,0,0
1731,2023-08-19 16:52:48.388,-7,0.0,0,1,0,0
1732,2023-08-19 16:52:48.590,4,1.0,0,1,0,0
1733,2023-08-19 16:52:48.780,-1,-1.0,0,1,0,0
1734,2023-08-19 16:52:48.996,1,3.0,0,1,0,0
1735,2023-08-19 16:52:49.196,0,-5.0,0,1,0,0
1736,2023-08-19 16:52:49.396,-2,1.0,0,1,0,0
1737,2023-08-19 16:52:49.593,3,3.0,0,1,0,0
1738,2023-08-19 16:52:49.798,2,-2.0,0,1,0,0
1739,2023-08-19 16:52:49.999,-8,-5.0,0,1,0,0
1740,2023-08-19 16:52:50.200,5,8.0,0,1,0,0
1741,2023-08-19 16:52:50.387,7,1.0,0,1,0,0
1742,2023-08-19 16:52:50.593,-15,-17.0,0,1,0,0
1743,2023-08-19 16:52:50.802,11,25.0,0,1,0,0
1744,2023-08-19 16:52:51.001,-1,-18.0,0,1,0,0
1745,2023-08-19 16:52:51.199,-3,5.0,0,1,0,0
1746,2023-08-19 16:52:51.389,-1,0.0,0,1,0,0
1747,2023-08-19 16:52:51.596,9,5.0,0,1,0,0
1748,2023-08-19 16:52:51.805,-9,-10.0,0,1,0,0
1749,2023-08-19 16:52:51.995,1,8.0,0,1,0,0
1750,2023-08-19 16:52:52.203,3,-2.0,0,1,0,0
1751,2023-08-19 16:52:52.401,-3,1.0,0,1,0,0
1752,2023-08-19 16:52:52.612,2,-4.0,0,1,0,0
1753,2023-08-19 16:52:52.810,-4,5.0,0,1,0,0
1754,2023-08-19 16:52:53.013,6,-2.0,0,1,0,0
1755,2023-08-19 16:52:53.213,-4,0.0,0,1,0,0
1756,2023-08-19 16:52:53.412,1,0.0,0,1,0,0
1757,2023-08-19 16:52:53.616,0,1.0,0,1,0,0
1758,2023-08-19 16:52:53.815,1,0.0,0,1,0,0
1759,2023-08-19 16:52:54.014,-3,-2.0,0,1,0,0
1760,2023-08-19 16:52:54.204,3,4.0,0,1,0,0
1761,2023-08-19 16:52:54.413,-2,-5.0,0,1,0,0
1762,2023-08-19 16:52:54.619,3,6.0,0,1,0,0
1763,2023-08-19 16:52:54.814,-3,-7.0,0,1,0,0
1764,2023-08-19 16:52:55.018,-6,-1.0,0,1,0,0
1765,2023-08-19 16:52:55.214,21,22.0,0,1,0,0
1766,2023-08-19 16:52:55.414,-31,-44.0,0,1,0,0
1767,2023-08-19 16:52:55.622,39,58.0,0,1,0,0
1768,2023-08-19 16:52:55.811,-53,-66.0,0,1,0,0
1769,2023-08-19 16:52:56.021,59,62.0,0,1,0,0
1770,2023-08-19 16:52:56.212,-44,-34.0,0,1,0,0
1771,2023-08-19 16:52:56.417,17,-8.0,0,1,0,0
1772,2023-08-19 16:52:56.623,1,45.0,0,1,0,0
1773,2023-08-19 16:52:56.827,-2,-53.0,0,1,0,0
1774,2023-08-19 16:52:57.018,-6,30.0,0,1,0,0
1775,2023-08-19 16:52:57.227,10,2.0,0,1,0,0
1776,2023-08-19 16:52:57.418,2,-14.0,0,1,0,0
1777,2023-08-19 16:52:57.626,-22,-1.0,0,1,0,0
1778,2023-08-19 16:52:57.834,31,25.0,0,1,0,0
1779,2023-08-19 16:52:58.027,-21,-34.0,0,1,0,0
1780,2023-08-19 16:52:58.232,3,22.0,0,1,0,0
1781,2023-08-19 16:52:58.437,4,-6.0,0,1,0,0
1782,2023-08-19 16:52:58.632,2,2.0,0,1,0,0
1783,2023-08-19 16:52:58.835,-13,-12.0,0,1,0,0
1784,2023-08-19 16:52:59.026,14,24.0,0,1,0,0
1785,2023-08-19 16:52:59.233,-3,-27.0,0,1,0,0
1786,2023-08-19 16:52:59.440,-5,18.0,0,1,0,0
1787,2023-08-19 16:52:59.640,1,-12.0,0,1,0,0
1788,2023-08-19 16:52:59.841,12,14.0,0,1,0,0
1789,2023-08-19 16:53:00.042,-19,-18.0,0,1,0,0
1790,2023-08-19 16:53:00.235,12,16.0,0,1,0,0
1791,2023-08-19 16:53:00.442,0,-10.0,0,1,0,0
1792,2023-08-19 16:53:00.637,-11,5.0,0,1,0,0
1793,2023-08-19 16:53:00.849,16,-1.0,0,1,0,0
1794,2023-08-19 16:53:01.049,-15,0.0,0,1,0,0
1795,2023-08-19 16:53:01.241,10,-2.0,0,1,0,0
1796,2023-08-19 16:53:01.450,-5,6.0,0,1,0,0
1797,2023-08-19 16:53:01.647,2,-8.0,0,1,0,0
1798,2023-08-19 16:53:01.851,-3,10.0,0,1,0,0
1799,2023-08-19 16:53:02.042,7,-10.0,0,1,0,0
1800,2023-08-19 16:53:02.244,-10,7.0,0,1,0,0
1801,2023-08-19 16:53:02.454,14,-2.0,0,1,0,0
1802,2023-08-19 16:53:02.644,-16,-4.0,0,1,0,0
1803,2023-08-19 16:53:02.852,11,6.0,0,1,0,0
1804,2023-08-19 16:53:03.054,-1,1.0,0,1,0,0
1805,2023-08-19 16:53:03.242,-5,-13.0,0,1,0,0
1806,2023-08-19 16:53:03.457,0,15.0,0,1,0,0
1807,2023-08-19 16:53:03.657,13,-3.0,0,1,0,0
1808,2023-08-19 16:53:03.863,-17,-9.0,0,1,0,0
1809,2023-08-19 16:53:04.055,10,13.0,0,1,0,0
1810,2023-08-19 16:53:04.262,-2,-7.0,0,1,0,0
1811,2023-08-19 16:53:04.457,-1,0.0,0,1,0,0
1812,2023-08-19 16:53:04.660,0,2.0,0,1,0,0
1813,2023-08-19 16:53:04.865,-1,-1.0,0,1,0,0
1814,2023-08-19 16:53:05.055,3,0.0,0,1,0,0
1815,2023-08-19 16:53:05.261,-8,0.0,0,1,0,0
1816,2023-08-19 16:53:05.467,10,0.0,0,1,0,0
1817,2023-08-19 16:53:05.661,-11,3.0,0,1,0,0
1818,2023-08-19 16:53:05.867,17,-2.0,0,1,0,0
1819,2023-08-19 16:53:06.071,-26,-7.0,0,1,0,0
1820,2023-08-19 16:53:06.271,27,14.0,0,1,0,0
1821,2023-08-19 16:53:06.472,-20,-9.0,0,1,0,0
1822,2023-08-19 16:53:06.662,9,-1.0,0,1,0,0
1823,2023-08-19 16:53:06.874,1,13.0,0,1,0,0
1824,2023-08-19 16:53:07.070,-14,-23.0,0,1,0,0
1825,2023-08-19 16:53:07.273,22,26.0,0,1,0,0
1826,2023-08-19 16:53:07.476,-23,-24.0,0,1,0,0
1827,2023-08-19 16:53:07.669,23,21.0,0,1,0,0
1828,2023-08-19 16:53:07.876,-23,-20.0,0,1,0,0
1829,2023-08-19 16:53:08.082,16,18.0,0,1,0,0
1830,2023-08-19 16:53:08.275,-3,-8.0,0,1,0,0
1831,2023-08-19 16:53:08.482,-6,-3.0,0,1,0,0
1832,2023-08-19 16:53:08.673,6,9.0,0,1,0,0
1833,2023-08-19 16:53:08.881,-1,-4.0,0,1,0,0
1834,2023-08-19 16:53:09.085,0,-3.0,0,1,0,0
1835,2023-08-19 16:53:09.285,0,11.0,0,1,0,0
1836,2023-08-19 16:53:09.487,-5,-23.0,0,1,0,0
1837,2023-08-19 16:53:09.680,10,35.0,0,1,0,0
1838,2023-08-19 16:53:09.884,-4,-34.0,0,1,0,0
1839,2023-08-19 16:53:10.090,-4,16.0,0,1,0,0
1840,2023-08-19 16:53:10.283,2,0.0,0,1,0,0
1841,2023-08-19 16:53:10.486,8,-4.0,0,1,0,0
1842,2023-08-19 16:53:10.679,-14,0.0,0,1,0,0
1843,2023-08-19 16:53:10.884,8,2.0,0,1,0,0
1844,2023-08-19 16:53:11.092,-1,0.0,0,1,0,0
1845,2023-08-19 16:53:11.284,5,3.0,0,1,0,0
1846,2023-08-19 16:53:11.489,-15,-12.0,0,1,0,0
1847,2023-08-19 16:53:11.699,18,17.0,0,1,0,0
1848,2023-08-19 16:53:11.888,-11,-10.0,0,1,0,0
1849,2023-08-19 16:53:12.100,2,-3.0,0,1,0,0
1850,2023-08-19 16:53:12.301,0,14.0,0,1,0,0
1851,2023-08-19 16:53:12.494,6,-12.0,0,1,0,0
1852,2023-08-19 16:53:12.702,-17,-2.0,0,1,0,0
1853,2023-08-19 16:53:12.899,18,24.0,0,1,0,0
1854,2023-08-19 16:53:13.096,-2,-38.0,0,1,0,0
1855,2023-08-19 16:53:13.300,-21,30.0,0,1,0,0
1856,2023-08-19 16:53:13.505,32,-7.0,0,1,0,0
1857,2023-08-19 16:53:13.697,-20,-7.0,0,1,0,0
1858,2023-08-19 16:53:13.906,0,1.0,0,1,0,0
1859,2023-08-19 16:53:14.097,6,11.0,0,1,0,0
1860,2023-08-19 16:53:14.306,6,-11.0,0,1,0,0
1861,2023-08-19 16:53:14.499,-18,0.0,0,1,0,0
1862,2023-08-19 16:53:14.709,14,9.0,0,1,0,0
1863,2023-08-19 16:53:14.898,-1,-9.0,0,1,0,0
1864,2023-08-19 16:53:15.105,-1,10.0,0,1,0,0
1865,2023-08-19 16:53:15.311,-6,-23.0,0,1,0,0
1866,2023-08-19 16:53:15.513,11,39.0,0,1,0,0
1867,2023-08-19 16:53:15.712,-2,-41.0,0,1,0,0
1868,2023-08-19 16:53:15.910,-11,30.0,0,1,0,0
1869,2023-08-19 16:53:16.114,18,-18.0,0,1,0,0
1870,2023-08-19 16:53:16.308,-16,10.0,0,1,0,0
1871,2023-08-19 16:53:16.518,11,-7.0,0,1,0,0
1872,2023-08-19 16:53:16.710,-7,5.0,0,1,0,0
1873,2023-08-19 16:53:16.914,6,-2.0,0,1,0,0
1874,2023-08-19 16:53:17.121,-7,-2.0,0,1,0,0
1875,2023-08-19 16:53:17.312,5,5.0,0,1,0,0
1876,2023-08-19 16:53:17.523,-1,-4.0,0,1,0,0
1877,2023-08-19 16:53:17.709,0,3.0,0,1,0,0
1878,2023-08-19 16:53:17.925,-3,-8.0,0,1,0,0
1879,2023-08-19 16:53:18.116,2,14.0,0,1,0,0
1880,2023-08-19 16:53:18.323,4,-16.0,0,1,0,0
1881,2023-08-19 16:53:18.517,-14,11.0,0,1,0,0
1882,2023-08-19 16:53:18.725,18,-4.0,0,1,0,0
1883,2023-08-19 16:53:18.928,-12,1.0,0,1,0,0
1884,2023-08-19 16:53:19.127,3,-1.0,0,1,0,0
1885,2023-08-19 16:53:19.329,5,3.0,0,1,0,0
1886,2023-08-19 16:53:19.523,-10,-4.0,0,1,0,0
1887,2023-08-19 16:53:19.730,10,6.0,0,1,0,0
1888,2023-08-19 16:53:19.921,-7,-6.0,0,1,0,0
1889,2023-08-19 16:53:20.127,3,5.0,0,1,0,0
1890,2023-08-19 16:53:20.334,0,-4.0,0,1,0,0
1891,2023-08-19 16:53:20.526,-1,2.0,0,1,0,0
1892,2023-08-19 16:53:20.736,2,-2.0,0,1,0,0
1893,2023-08-19 16:53:20.939,-4,1.0,0,1,0,0
1894,2023-08-19 16:53:21.140,5,1.0,0,1,0,0
1895,2023-08-19 16:53:21.326,-5,-7.0,0,1,0,0
1896,2023-08-19 16:53:21.534,1,13.0,0,1,0,0
1897,2023-08-19 16:53:21.741,10,-11.0,0,1,0,0
1898,2023-08-19 16:53:21.936,-23,0.0,0,1,0,0
1899,2023-08-19 16:53:22.142,23,5.0,0,1,0,0
1900,2023-08-19 16:53:22.340,-10,-1.0,0,1,0,0
1901,2023-08-19 16:53:22.545,0,-6.0,0,1,0,0
1902,2023-08-19 16:53:22.739,0,7.0,0,1,0,0
1903,2023-08-19 16:53:22.942,2,-3.0,0,1,0,0
1904,2023-08-19 16:53:23.131,-1,-1.0,0,1,0,0
1905,2023-08-19 16:53:23.351,-1,3.0,0,1,0,0
1906,2023-08-19 16:53:23.541,3,-2.0,0,1,0,0
1907,2023-08-19 16:53:23.748,0,4.0,0,1,0,0
1908,2023-08-19 16:53:23.954,-10,-14.0,0,1,0,0
1909,2023-08-19 16:53:24.155,20,31.0,0,1,0,0
1910,2023-08-19 16:53:24.356,-19,-40.0,0,1,0,0
1911,2023-08-19 16:53:24.546,6,29.0,0,1,0,0
1912,2023-08-19 16:53:24.753,2,-7.0,0,1,0,0
1913,2023-08-19 16:53:24.954,1,-4.0,0,1,0,0
1914,2023-08-19 16:53:25.155,-10,4.0,0,1,0,0
1915,2023-08-19 16:53:25.353,13,0.0,0,1,0,0
1916,2023-08-19 16:53:25.553,-12,0.0,0,1,0,0
1917,2023-08-19 16:53:25.759,12,-3.0,0,1,0,0
1918,2023-08-19 16:53:25.952,-12,7.0,0,1,0,0
1919,2023-08-19 16:53:26.160,11,-11.0,0,1,0,0
1920,2023-08-19 16:53:26.351,-10,14.0,0,1,0,0
1921,2023-08-19 16:53:26.556,12,-10.0,0,1,0,0
1922,2023-08-19 16:53:26.762,-15,0.0,0,1,0,0
1923,2023-08-19 16:53:26.968,16,12.0,0,1,0,0
1924,2023-08-19 16:53:27.168,-15,-19.0,0,1,0,0
1925,2023-08-19 16:53:27.368,11,17.0,0,1,0,0
1926,2023-08-19 16:53:27.561,-4,-7.0,0,1,0,0
1927,2023-08-19 16:53:27.770,-4,-4.0,0,1,0,0
1928,2023-08-19 16:53:27.967,15,14.0,0,1,0,0
1929,2023-08-19 16:53:28.168,-27,-22.0,0,1,0,0
1930,2023-08-19 16:53:28.373,39,27.0,0,1,0,0
1931,2023-08-19 16:53:28.564,-42,-28.0,0,1,0,0
1932,2023-08-19 16:53:28.773,32,19.0,0,1,0,0
1933,2023-08-19 16:53:28.962,-15,-4.0,0,1,0,0
1934,2023-08-19 16:53:29.169,3,-8.0,0,1,0,0
1935,2023-08-19 16:53:29.376,2,12.0,0,1,0,0
1936,2023-08-19 16:53:29.571,-7,-10.0,0,1,0,0
1937,2023-08-19 16:53:29.774,11,7.0,0,1,0,0
1938,2023-08-19 16:53:29.979,-13,-7.0,0,1,0,0
1939,2023-08-19 16:53:30.168,12,8.0,0,1,0,0
1940,2023-08-19 16:53:30.375,-8,-7.0,0,1,0,0
1941,2023-08-19 16:53:30.584,4,2.0,0,1,0,0
1942,2023-08-19 16:53:30.779,-3,0.0,0,1,0,0
1943,2023-08-19 16:53:30.984,4,1.0,0,1,0,0
1944,2023-08-19 16:53:31.182,0,-2.0,0,1,0,0
1945,2023-08-19 16:53:31.381,-12,-3.0,0,1,0,0
1946,2023-08-19 16:53:31.588,19,12.0,0,1,0,0
1947,2023-08-19 16:53:31.780,-12,-12.0,0,1,0,0
1948,2023-08-19 16:53:31.988,3,2.0,0,1,0,0
1949,2023-08-19 16:53:32.182,-3,4.0,0,1,0,0
1950,2023-08-19 16:53:32.387,7,-3.0,0,1,0,0
1951,2023-08-19 16:53:32.579,-7,0.0,0,1,0,0
1952,2023-08-19 16:53:32.783,1,0.0,0,1,0,0
1953,2023-08-19 16:53:32.987,3,7.0,0,1,0,0
1954,2023-08-19 16:53:33.193,-6,-15.0,0,1,0,0
1955,2023-08-19 16:53:33.382,6,21.0,0,1,0,0
1956,2023-08-19 16:53:33.591,-3,-19.0,0,1,0,0
1957,2023-08-19 16:53:33.792,-3,7.0,0,1,0,0
1958,2023-08-19 16:53:33.996,7,8.0,0,1,0,0
1959,2023-08-19 16:53:34.186,-3,-17.0,0,1,0,0
1960,2023-08-19 16:53:34.392,-5,12.0,0,1,0,0
1961,2023-08-19 16:53:34.598,8,-1.0,0,1,0,0
1962,2023-08-19 16:53:34.803,-4,-6.0,0,1,0,0
1963,2023-08-19 16:53:34.996,-2,7.0,0,1,0,0
1964,2023-08-19 16:53:35.202,5,-5.0,0,1,0,0
1965,2023-08-19 16:53:35.402,-5,0.0,0,1,0,0
1966,2023-08-19 16:53:35.600,4,3.0,0,1,0,0
1967,2023-08-19 16:53:35.807,-3,-3.0,0,1,0,0
1968,2023-08-19 16:53:35.996,3,0.0,0,1,0,0
1969,2023-08-19 16:53:36.203,-4,0.0,0,1,0,0
1970,2023-08-19 16:53:36.410,5,0.0,0,1,0,0
1971,2023-08-19 16:53:36.610,-2,0.0,0,1,0,0
1972,2023-08-19 16:53:36.799,0,-2.0,0,1,0,0
1973,2023-08-19 16:53:37.004,0,3.0,0,1,0,0
1974,2023-08-19 16:53:37.212,0,-3.0,0,1,0,0
1975,2023-08-19 16:53:37.402,-1,2.0,0,1,0,0
1976,2023-08-19 16:53:37.610,3,0.0,0,1,0,0
1977,2023-08-19 16:53:37.802,-4,-4.0,0,1,0,0
1978,2023-08-19 16:53:38.008,1,4.0,0,1,0,0
1979,2023-08-19 16:53:38.215,3,0.0,0,1,0,0
1980,2023-08-19 16:53:38.414,-11,-8.0,0,1,0,0
1981,2023-08-19 16:53:38.615,21,21.0,0,1,0,0
1982,2023-08-19 16:53:38.812,-21,-27.0,0,1,0,0
1983,2023-08-19 16:53:39.012,9,18.0,0,1,0,0
1984,2023-08-19 16:53:39.221,1,0.0,0,1,0,0
1985,2023-08-19 16:53:39.414,-1,-10.0,0,1,0,0
1986,2023-08-19 16:53:39.622,-4,7.0,0,1,0,0
1987,2023-08-19 16:53:39.824,6,0.0,0,1,0,0
1988,2023-08-19 16:53:40.013,-1,-4.0,0,1,0,0
1989,2023-08-19 16:53:40.223,-1,2.0,0,1,0,0
1990,2023-08-19 16:53:40.428,0,1.0,0,1,0,0
1991,2023-08-19 16:53:40.621,2,-6.0,0,1,0,0
1992,2023-08-19 16:53:40.827,-5,8.0,0,1,0,0
1993,2023-08-19 16:53:41.019,8,-6.0,0,1,0,0
1994,2023-08-19 16:53:41.228,-10,1.0,0,1,0,0
1995,2023-08-19 16:53:41.419,7,1.0,0,1,0,0
1996,2023-08-19 16:53:41.625,-1,0.0,0,1,0,0
1997,2023-08-19 16:53:41.832,-3,-4.0,0,1,0,0
1998,2023-08-19 16:53:42.024,6,8.0,0,1,0,0
1999,2023-08-19 16:53:42.233,-6,-9.0,0,1,0,0
2000,2023-08-19 16:53:42.424,4,6.0,0,0,1,0
2001,2023-08-19 16:53:42.632,-4,-3.0,0,0,1,0
2002,2023-08-19 16:53:42.836,6,1.0,0,0,1,0
2003,2023-08-19 16:53:43.027,-10,-4.0,0,0,1,0
2004,2023-08-19 16:53:43.233,11,8.0,0,0,1,0
2005,2023-08-19 16:53:43.441,-7,-13.0,0,0,1,0
2006,2023-08-19 16:53:43.637,-1,21.0,0,0,1,0
2007,2023-08-19 16:53:43.838,16,-30.0,0,0,1,0
2008,2023-08-19 16:53:44.030,-34,27.0,0,0,1,0
2009,2023-08-19 16:53:44.241,41,-13.0,0,0,1,0
2010,2023-08-19 16:53:44.445,-30,4.0,0,0,1,0
2011,2023-08-19 16:53:44.636,11,-7.0,0,0,1,0
2012,2023-08-19 16:53:44.842,-1,12.0,0,0,1,0
2013,2023-08-19 16:53:45.032,1,-10.0,0,0,1,0
2014,2023-08-19 16:53:45.247,-3,3.0,0,0,1,0
2015,2023-08-19 16:53:45.448,1,1.0,0,0,1,0
2016,2023-08-19 16:53:45.642,1,-2.0,0,0,1,0
2017,2023-08-19 16:53:45.850,-2,3.0,0,0,1,0
2018,2023-08-19 16:53:46.040,3,-3.0,0,0,1,0
2019,2023-08-19 16:53:46.249,-4,0.0,0,0,1,0
2020,2023-08-19 16:53:46.439,3,3.0,0,0,1,0
2021,2023-08-19 16:53:46.647,0,-3.0,0,0,1,0
2022,2023-08-19 16:53:46.841,-2,0.0,0,0,1,0
2023,2023-08-19 16:53:47.049,3,3.0,0,0,1,0
2024,2023-08-19 16:53:47.253,0,-6.0,0,0,1,0
2025,2023-08-19 16:53:47.449,-5,3.0,0,0,1,0
2026,2023-08-19 16:53:47.656,7,2.0,0,0,1,0
2027,2023-08-19 16:53:47.858,-5,-5.0,0,0,1,0
2028,2023-08-19 16:53:48.062,0,3.0,0,0,1,0
2029,2023-08-19 16:53:48.251,3,1.0,0,0,1,0
2030,2023-08-19 16:53:48.457,-3,-5.0,0,0,1,0
2031,2023-08-19 16:53:48.660,1,9.0,0,0,1,0
2032,2023-08-19 16:53:48.863,1,-9.0,0,0,1,0
2033,2023-08-19 16:53:49.051,-3,5.0,0,0,1,0
2034,2023-08-19 16:53:49.255,2,0.0,0,0,1,0
2035,2023-08-19 16:53:49.458,2,0.0,0,0,1,0
2036,2023-08-19 16:53:49.661,-4,-2.0,0,0,1,0
2037,2023-08-19 16:53:49.864,3,1.0,0,0,1,0
2038,2023-08-19 16:53:50.067,0,1.0,0,0,1,0
2039,2023-08-19 16:53:50.262,0,-6.0,0,0,1,0
2040,2023-08-19 16:53:50.465,1,13.0,0,0,1,0
2041,2023-08-19 16:53:50.671,1,-18.0,0,0,1,0
2042,2023-08-19 16:53:50.866,-9,17.0,0,0,1,0
2043,2023-08-19 16:53:51.073,14,-8.0,0,0,1,0
2044,2023-08-19 16:53:51.260,-9,0.0,0,0,1,0
2045,2023-08-19 16:53:51.471,0,-1.0,0,0,1,0
2046,2023-08-19 16:53:51.675,3,4.0,0,0,1,0
2047,2023-08-19 16:53:51.868,3,-1.0,0,0,1,0
2048,2023-08-19 16:53:52.075,-12,-10.0,0,0,1,0
2049,2023-08-19 16:53:52.279,11,22.0,0,0,1,0
2050,2023-08-19 16:53:52.480,1,-21.0,0,0,1,0
2051,2023-08-19 16:53:52.681,-12,8.0,0,0,1,0
2052,2023-08-19 16:53:52.873,10,2.0,0,0,1,0
2053,2023-08-19 16:53:53.083,1,-4.0,0,0,1,0
2054,2023-08-19 16:53:53.283,-11,0.0,0,0,1,0
2055,2023-08-19 16:53:53.477,11,2.0,0,0,1,0
2056,2023-08-19 16:53:53.686,-7,1.0,0,0,1,0
2057,2023-08-19 16:53:53.874,5,-4.0,0,0,1,0
2058,2023-08-19 16:53:54.085,-6,1.0,0,0,1,0
2059,2023-08-19 16:53:54.277,4,2.0,0,0,1,0
2060,2023-08-19 16:53:54.484,0,-1.0,0,0,1,0
2061,2023-08-19 16:53:54.674,-2,-1.0,0,0,1,0
2062,2023-08-19 16:53:54.890,1,3.0,0,0,1,0
2063,2023-08-19 16:53:55.090,0,0.0,0,0,1,0
2064,2023-08-19 16:53:55.286,0,0.0,0,0,1,0
2065,2023-08-19 16:53:55.492,-3,0.0,0,0,1,0
2066,2023-08-19 16:53:55.680,3,0.0,0,0,1,0
2067,2023-08-19 16:53:55.887,-2,2.0,0,0,1,0
2068,2023-08-19 16:53:56.099,2,-3.0,0,0,1,0
2069,2023-08-19 16:53:56.292,-2,2.0,0,0,1,0
2070,2023-08-19 16:53:56.492,0,-1.0,0,0,1,0
2071,2023-08-19 16:53:56.700,0,1.0,0,0,1,0
2072,2023-08-19 16:53:56.893,0,0.0,0,0,1,0
2073,2023-08-19 16:53:57.102,-1,-3.0,0,0,1,0
2074,2023-08-19 16:53:57.288,0,7.0,0,0,1,0
2075,2023-08-19 16:53:57.494,2,-7.0,0,0,1,0
2076,2023-08-19 16:53:57.703,-5,5.0,0,0,1,0
2077,2023-08-19 16:53:57.904,3,-3.0,0,0,1,0
2078,2023-08-19 16:53:58.102,0,2.0,0,0,1,0
2079,2023-08-19 16:53:58.296,-2,-3.0,0,0,1,0
2080,2023-08-19 16:53:58.500,0,3.0,0,0,1,0
2081,2023-08-19 16:53:58.694,2,0.0,0,0,1,0
2082,2023-08-19 16:53:58.904,-2,-3.0,0,0,1,0
2083,2023-08-19 16:53:59.109,-1,5.0,0,0,1,0
2084,2023-08-19 16:53:59.304,6,-3.0,0,0,1,0
2085,2023-08-19 16:53:59.509,-7,1.0,0,0,1,0
2086,2023-08-19 16:53:59.702,5,-1.0,0,0,1,0
2087,2023-08-19 16:53:59.905,-2,5.0,0,0,1,0
2088,2023-08-19 16:54:00.112,0,-10.0,0,0,1,0
2089,2023-08-19 16:54:00.306,-1,15.0,0,0,1,0
2090,2023-08-19 16:54:00.507,4,-14.0,0,0,1,0
2091,2023-08-19 16:54:00.710,-8,10.0,0,0,1,0
2092,2023-08-19 16:54:00.913,9,-6.0,0,0,1,0
2093,2023-08-19 16:54:01.116,-7,2.0,0,0,1,0
2094,2023-08-19 16:54:01.319,5,-1.0,0,0,1,0
2095,2023-08-19 16:54:01.507,-3,1.0,0,0,1,0
2096,2023-08-19 16:54:01.712,2,-1.0,0,0,1,0
2097,2023-08-19 16:54:01.915,-2,1.0,0,0,1,0
2098,2023-08-19 16:54:02.118,1,0.0,0,0,1,0
2099,2023-08-19 16:54:02.321,0,1.0,0,0,1,0
2100,2023-08-19 16:54:02.524,-1,-3.0,0,0,1,0
2101,2023-08-19 16:54:02.712,0,5.0,0,0,1,0
2102,2023-08-19 16:54:02.916,2,-3.0,0,0,1,0
2103,2023-08-19 16:54:03.119,-4,2.0,0,0,1,0
2104,2023-08-19 16:54:03.322,4,-1.0,0,0,1,0
2105,2023-08-19 16:54:03.525,-4,1.0,0,0,1,0
2106,2023-08-19 16:54:03.729,2,-2.0,0,0,1,0
2107,2023-08-19 16:54:03.916,1,6.0,0,0,1,0
2108,2023-08-19 16:54:04.121,-4,-12.0,0,0,1,0
2109,2023-08-19 16:54:04.328,2,14.0,0,0,1,0
2110,2023-08-19 16:54:04.521,2,-6.0,0,0,1,0
2111,2023-08-19 16:54:04.729,-2,-4.0,0,0,1,0
2112,2023-08-19 16:54:04.935,-3,11.0,0,0,1,0
2113,2023-08-19 16:54:05.134,10,-12.0,0,0,1,0
2114,2023-08-19 16:54:05.332,-13,7.0,0,0,1,0
2115,2023-08-19 16:54:05.539,11,-1.0,0,0,1,0
2116,2023-08-19 16:54:05.731,-6,-2.0,0,0,1,0
2117,2023-08-19 16:54:05.938,2,3.0,0,0,1,0
2118,2023-08-19 16:54:06.136,0,-2.0,0,0,1,0
2119,2023-08-19 16:54:06.335,0,1.0,0,0,1,0
2120,2023-08-19 16:54:06.540,0,-4.0,0,0,1,0
2121,2023-08-19 16:54:06.731,0,8.0,0,0,1,0
2122,2023-08-19 16:54:06.942,5,-8.0,0,0,1,0
2123,2023-08-19 16:54:07.134,-10,3.0,0,0,1,0
2124,2023-08-19 16:54:07.339,8,1.0,0,0,1,0
2125,2023-08-19 16:54:07.544,-1,0.0,0,0,1,0
2126,2023-08-19 16:54:07.747,-3,-3.0,0,0,1,0
2127,2023-08-19 16:54:07.947,2,7.0,0,0,1,0
2128,2023-08-19 16:54:08.136,0,-9.0,0,0,1,0
2129,2023-08-19 16:54:08.342,-2,8.0,0,0,1,0
2130,2023-08-19 16:54:08.550,1,-6.0,0,0,1,0
2131,2023-08-19 16:54:08.742,0,4.0,0,0,1,0
2132,2023-08-19 16:54:08.949,0,-1.0,0,0,1,0
2133,2023-08-19 16:54:09.138,0,-1.0,0,0,1,0
2134,2023-08-19 16:54:09.344,0,3.0,0,0,1,0
2135,2023-08-19 16:54:09.555,1,-4.0,0,0,1,0
2136,2023-08-19 16:54:09.745,-1,4.0,0,0,1,0
2137,2023-08-19 16:54:09.951,0,-5.0,0,0,1,0
2138,2023-08-19 16:54:10.156,1,5.0,0,0,1,0
2139,2023-08-19 16:54:10.348,-1,-3.0,0,0,1,0
2140,2023-08-19 16:54:10.555,1,-1.0,0,0,1,0
2141,2023-08-19 16:54:10.758,-2,4.0,0,0,1,0
2142,2023-08-19 16:54:10.961,3,-5.0,0,0,1,0
2143,2023-08-19 16:54:11.163,-4,5.0,0,0,1,0
2144,2023-08-19 16:54:11.353,3,-5.0,0,0,1,0
2145,2023-08-19 16:54:11.563,-3,5.0,0,0,1,0
2146,2023-08-19 16:54:11.762,4,-4.0,0,0,1,0
2147,2023-08-19 16:54:11.962,-5,2.0,0,0,1,0
2148,2023-08-19 16:54:12.161,4,0.0,0,0,1,0
2149,2023-08-19 16:54:12.362,-1,-1.0,0,0,1,0
2150,2023-08-19 16:54:12.568,0,0.0,0,0,1,0
2151,2023-08-19 16:54:12.760,0,0.0,0,0,1,0
2152,2023-08-19 16:54:12.969,2,0.0,0,0,1,0
2153,2023-08-19 16:54:13.159,-5,0.0,0,0,1,0
2154,2023-08-19 16:54:13.364,6,1.0,0,0,1,0
2155,2023-08-19 16:54:13.571,-6,-2.0,0,0,1,0
2156,2023-08-19 16:54:13.761,4,2.0,0,0,1,0
2157,2023-08-19 16:54:13.971,0,0.0,0,0,1,0
2158,2023-08-19 16:54:14.175,-4,-6.0,0,0,1,0
2159,2023-08-19 16:54:14.363,4,11.0,0,0,1,0
2160,2023-08-19 16:54:14.569,1,-7.0,0,0,1,0
2161,2023-08-19 16:54:14.777,-4,0.0,0,0,1,0
2162,2023-08-19 16:54:14.975,2,3.0,0,0,1,0
2163,2023-08-19 16:54:15.177,1,-2.0,0,0,1,0
2164,2023-08-19 16:54:15.367,-3,0.0,0,0,1,0
2165,2023-08-19 16:54:15.575,1,0.0,0,0,1,0
2166,2023-08-19 16:54:15.783,0,1.0,0,0,1,0
2167,2023-08-19 16:54:15.984,1,-1.0,0,0,1,0
2168,2023-08-19 16:54:16.185,-2,-1.0,0,0,1,0
2169,2023-08-19 16:54:16.376,2,2.0,0,0,1,0
2170,2023-08-19 16:54:16.584,-2,-4.0,0,0,1,0
2171,2023-08-19 16:54:16.786,5,6.0,0,0,1,0
2172,2023-08-19 16:54:16.987,-9,-10.0,0,0,1,0
2173,2023-08-19 16:54:17.182,8,11.0,0,0,1,0
2174,2023-08-19 16:54:17.382,-3,-7.0,0,0,1,0
2175,2023-08-19 16:54:17.588,1,1.0,0,0,1,0
2176,2023-08-19 16:54:17.789,-2,0.0,0,0,1,0
2177,2023-08-19 16:54:17.988,4,1.0,0,0,1,0
2178,2023-08-19 16:54:18.178,-2,-2.0,0,0,1,0
2179,2023-08-19 16:54:18.384,-1,0.0,0,0,1,0
2180,2023-08-19 16:54:18.591,3,0.0,0,0,1,0
2181,2023-08-19 16:54:18.798,-1,5.0,0,0,1,0
2182,2023-08-19 16:54:18.990,-2,-12.0,0,0,1,0
2183,2023-08-19 16:54:19.198,2,16.0,0,0,1,0
2184,2023-08-19 16:54:19.399,0,-13.0,0,0,1,0
2185,2023-08-19 16:54:19.599,-1,5.0,0,0,1,0
2186,2023-08-19 16:54:19.789,1,1.0,0,0,1,0
2187,2023-08-19 16:54:19.992,1,-3.0,0,0,1,0
2188,2023-08-19 16:54:20.197,-5,0.0,0,0,1,0
2189,2023-08-19 16:54:20.403,5,4.0,0,0,1,0
2190,2023-08-19 16:54:20.603,0,-4.0,0,0,1,0
2191,2023-08-19 16:54:20.803,-2,0.0,0,0,1,0
2192,2023-08-19 16:54:21.003,0,3.0,0,0,1,0
2193,2023-08-19 16:54:21.200,3,-3.0,0,0,1,0
2194,2023-08-19 16:54:21.394,-4,1.0,0,0,1,0
2195,2023-08-19 16:54:21.608,2,-1.0,0,0,1,0
2196,2023-08-19 16:54:21.803,0,3.0,0,0,1,0
2197,2023-08-19 16:54:22.001,0,-4.0,0,0,1,0
2198,2023-08-19 16:54:22.206,-1,3.0,0,0,1,0
2199,2023-08-19 16:54:22.395,1,0.0,0,0,1,0
2200,2023-08-19 16:54:22.600,1,0.0,0,0,0,1
2201,2023-08-19 16:54:22.807,-3,0.0,0,0,0,1
2202,2023-08-19 16:54:23.015,3,0.0,0,0,0,1
2203,2023-08-19 16:54:23.217,-1,1.0,0,0,0,1
2204,2023-08-19 16:54:23.418,1,-1.0,0,0,0,1
2205,2023-08-19 16:54:23.608,-1,0.0,0,0,0,1
2206,2023-08-19 16:54:23.819,1,1.0,0,0,0,1
2207,2023-08-19 16:54:24.009,-2,0.0,0,0,0,1
2208,2023-08-19 16:54:24.220,4,0.0,0,0,0,1
2209,2023-08-19 16:54:24.415,-7,0.0,0,0,0,1
2210,2023-08-19 16:54:24.618,6,2.0,0,0,0,1
2211,2023-08-19 16:54:24.822,-3,-1.0,0,0,0,1
2212,2023-08-19 16:54:25.015,0,-1.0,0,0,0,1
2213,2023-08-19 16:54:25.224,1,3.0,0,0,0,1
2214,2023-08-19 16:54:25.421,0,-2.0,0,0,0,1
2215,2023-08-19 16:54:25.623,-1,1.0,0,0,0,1
2216,2023-08-19 16:54:25.816,2,0.0,0,0,0,1
2217,2023-08-19 16:54:26.023,-2,-2.0,0,0,0,1
2218,2023-08-19 16:54:26.214,2,2.0,0,0,0,1
2219,2023-08-19 16:54:26.424,-1,-1.0,0,0,0,1
2220,2023-08-19 16:54:26.630,1,2.0,0,0,0,1
2221,2023-08-19 16:54:26.824,-1,-5.0,0,0,0,1
2222,2023-08-19 16:54:27.028,1,6.0,0,0,0,1
2223,2023-08-19 16:54:27.221,0,-4.0,0,0,0,1
2224,2023-08-19 16:54:27.429,0,0.0,0,0,0,1
2225,2023-08-19 16:54:27.631,-1,2.0,0,0,0,1
2226,2023-08-19 16:54:27.831,3,-2.0,0,0,0,1
2227,2023-08-19 16:54:28.034,-4,0.0,0,0,0,1
2228,2023-08-19 16:54:28.224,5,3.0,0,0,0,1
2229,2023-08-19 16:54:28.432,-6,-7.0,0,0,0,1
2230,2023-08-19 16:54:28.639,5,8.0,0,0,0,1
2231,2023-08-19 16:54:28.830,-1,-5.0,0,0,0,1
2232,2023-08-19 16:54:29.037,0,1.0,0,0,0,1
2233,2023-08-19 16:54:29.228,0,1.0,0,0,0,1
2234,2023-08-19 16:54:29.436,0,-2.0,0,0,0,1
2235,2023-08-19 16:54:29.643,-1,1.0,0,0,0,1
2236,2023-08-19 16:54:29.835,0,-1.0,0,0,0,1
2237,2023-08-19 16:54:30.036,1,2.0,0,0,0,1
2238,2023-08-19 16:54:30.243,-2,-4.0,0,0,0,1
2239,2023-08-19 16:54:30.444,0,3.0,0,0,0,1
2240,2023-08-19 16:54:30.647,1,1.0,0,0,0,1
2241,2023-08-19 16:54:30.833,0,-5.0,0,0,0,1
2242,2023-08-19 16:54:31.043,-5,4.0,0,0,0,1
2243,2023-08-19 16:54:31.249,8,0.0,0,0,0,1
2244,2023-08-19 16:54:31.440,-5,-2.0,0,0,0,1
2245,2023-08-19 16:54:31.649,0,0.0,0,0,0,1
2246,2023-08-19 16:54:31.843,1,1.0,0,0,0,1
2247,2023-08-19 16:54:32.048,0,-2.0,0,0,0,1
2248,2023-08-19 16:54:32.257,-1,2.0,0,0,0,1
2249,2023-08-19 16:54:32.457,1,-1.0,0,0,0,1
2250,2023-08-19 16:54:32.658,-1,0.0,0,0,0,1
2251,2023-08-19 16:54:32.845,1,2.0,0,0,0,1
2252,2023-08-19 16:54:33.059,0,-3.0,0,0,0,1
2253,2023-08-19 16:54:33.260,0,3.0,0,0,0,1
2254,2023-08-19 16:54:33.456,-4,-5.0,0,0,0,1
2255,2023-08-19 16:54:33.660,6,8.0,0,0,0,1
2256,2023-08-19 16:54:33.862,-3,-3.0,0,0,0,1
2257,2023-08-19 16:54:34.052,2,-4.0,0,0,0,1
2258,2023-08-19 16:54:34.262,-5,7.0,0,0,0,1
2259,2023-08-19 16:54:34.459,8,-4.0,0,0,0,1
2260,2023-08-19 16:54:34.658,-7,0.0,0,0,0,1
2261,2023-08-19 16:54:34.867,3,3.0,0,0,0,1
2262,2023-08-19 16:54:35.056,0,-3.0,0,0,0,1
2263,2023-08-19 16:54:35.264,-1,2.0,0,0,0,1
2264,2023-08-19 16:54:35.458,0,0.0,0,0,0,1
2265,2023-08-19 16:54:35.664,2,0.0,0,0,0,1
2266,2023-08-19 16:54:35.864,-4,0.0,0,0,0,1
2267,2023-08-19 16:54:36.062,3,0.0,0,0,0,1
2268,2023-08-19 16:54:36.270,0,3.0,0,0,0,1
2269,2023-08-19 16:54:36.461,-4,-6.0,0,0,0,1
2270,2023-08-19 16:54:36.672,5,8.0,0,0,0,1
2271,2023-08-19 16:54:36.861,-4,-8.0,0,0,0,1
2272,2023-08-19 16:54:37.070,2,6.0,0,0,0,1
2273,2023-08-19 16:54:37.278,0,-3.0,0,0,0,1
2274,2023-08-19 16:54:37.478,0,1.0,0,0,0,1
2275,2023-08-19 16:54:37.679,0,0.0,0,0,0,1
2276,2023-08-19 16:54:37.880,0,0.0,0,0,0,1
2277,2023-08-19 16:54:38.072,0,0.0,0,0,0,1
2278,2023-08-19 16:54:38.281,0,-1.0,0,0,0,1
2279,2023-08-19 16:54:38.471,0,2.0,0,0,0,1
2280,2023-08-19 16:54:38.683,1,-2.0,0,0,0,1
2281,2023-08-19 16:54:38.878,-1,0.0,0,0,0,1
2282,2023-08-19 16:54:39.076,0,1.0,0,0,0,1
2283,2023-08-19 16:54:39.283,1,-2.0,0,0,0,1
2284,2023-08-19 16:54:39.484,-3,2.0,0,0,0,1
2285,2023-08-19 16:54:39.686,3,0.0,0,0,0,1
2286,2023-08-19 16:54:39.886,-1,-1.0,0,0,0,1
2287,2023-08-19 16:54:40.074,0,2.0,0,0,0,1
2288,2023-08-19 16:54:40.289,1,-1.0,0,0,0,1
2289,2023-08-19 16:54:40.489,-1,2.0,0,0,0,1
2290,2023-08-19 16:54:40.685,0,-3.0,0,0,0,1
2291,2023-08-19 16:54:40.888,0,4.0,0,0,0,1
2292,2023-08-19 16:54:41.078,0,-4.0,0,0,0,1
2293,2023-08-19 16:54:41.292,-1,2.0,0,0,0,1
2294,2023-08-19 16:54:41.483,0,0.0,0,0,0,1
2295,2023-08-19 16:54:41.687,0,-1.0,0,0,0,1
2296,2023-08-19 16:54:41.896,-1,0.0,0,0,0,1
2297,2023-08-19 16:54:42.084,0,0.0,0,0,0,1
2298,2023-08-19 16:54:42.300,1,0.0,0,0,0,1
2299,2023-08-19 16:54:42.501,-2,-1.0,0,0,0,1
2300,2023-08-19 16:54:42.688,1,0.0,0,0,0,1
2301,2023-08-19 16:54:42.895,0,1.0,0,0,0,1
2302,2023-08-19 16:54:43.102,1,-1.0,0,0,0,1
2303,2023-08-19 16:54:43.303,-3,-2.0,0,0,0,1
2304,2023-08-19 16:54:43.500,2,5.0,0,0,0,1
2305,2023-08-19 16:54:43.692,1,-4.0,0,0,0,1
2306,2023-08-19 16:54:43.906,-2,0.0,0,0,0,1
2307,2023-08-19 16:54:44.092,0,1.0,0,0,0,1
2308,2023-08-19 16:54:44.304,2,0.0,0,0,0,1
2309,2023-08-19 16:54:44.505,-2,-1.0,0,0,0,1
2310,2023-08-19 16:54:44.696,0,1.0,0,0,0,1
2311,2023-08-19 16:54:44.908,1,0.0,0,0,0,1
2312,2023-08-19 16:54:45.100,0,0.0,0,0,0,1
2313,2023-08-19 16:54:45.303,-1,-1.0,0,0,0,1
2314,2023-08-19 16:54:45.510,1,1.0,0,0,0,1
2315,2023-08-19 16:54:45.699,0,1.0,0,0,0,1
2316,2023-08-19 16:54:45.906,-3,-5.0,0,0,0,1
2317,2023-08-19 16:54:46.099,3,8.0,0,0,0,1
2318,2023-08-19 16:54:46.314,0,-8.0,0,0,0,1
2319,2023-08-19 16:54:46.514,-1,4.0,0,0,0,1
2320,2023-08-19 16:54:46.705,2,0.0,0,0,0,1
2321,2023-08-19 16:54:46.913,-1,-3.0,0,0,0,1
2322,2023-08-19 16:54:47.120,0,4.0,0,0,0,1
2323,2023-08-19 16:54:47.314,1,-1.0,0,0,0,1
2324,2023-08-19 16:54:47.518,0,0.0,0,0,0,1
2325,2023-08-19 16:54:47.709,-1,3.0,0,0,0,1
2326,2023-08-19 16:54:47.917,3,-4.0,0,0,0,1
2327,2023-08-19 16:54:48.123,-5,4.0,0,0,0,1
2328,2023-08-19 16:54:48.315,5,-1.0,0,0,0,1
2329,2023-08-19 16:54:48.520,-3,0.0,0,0,0,1
2330,2023-08-19 16:54:48.723,0,0.0,0,0,0,1
2331,2023-08-19 16:54:48.927,1,3.0,0,0,0,1
2332,2023-08-19 16:54:49.127,0,-4.0,0,0,0,1
2333,2023-08-19 16:54:49.313,-3,1.0,0,0,0,1
2334,2023-08-19 16:54:49.522,4,4.0,0,0,0,1
2335,2023-08-19 16:54:49.728,0,-6.0,0,0,0,1
2336,2023-08-19 16:54:49.925,-5,2.0,0,0,0,1
2337,2023-08-19 16:54:50.124,5,0.0,0,0,0,1
2338,2023-08-19 16:54:50.331,-1,0.0,0,0,0,1
2339,2023-08-19 16:54:50.524,-2,-2.0,0,0,0,1
2340,2023-08-19 16:54:50.728,2,3.0,0,0,0,1
2341,2023-08-19 16:54:50.934,-1,-3.0,0,0,0,1
2342,2023-08-19 16:54:51.126,0,1.0,0,0,0,1
2343,2023-08-19 16:54:51.337,0,0.0,0,0,0,1
2344,2023-08-19 16:54:51.539,1,0.0,0,0,0,1
2345,2023-08-19 16:54:51.741,-2,-1.0,0,0,0,1
2346,2023-08-19 16:54:51.942,3,1.0,0,0,0,1
2347,2023-08-19 16:54:52.129,-3,-2.0,0,0,0,1
2348,2023-08-19 16:54:52.340,3,2.0,0,0,0,1
2349,2023-08-19 16:54:52.543,-3,-2.0,0,0,0,1
2350,2023-08-19 16:54:52.735,2,2.0,0,0,0,1
2351,2023-08-19 16:54:52.944,-1,-1.0,0,0,0,1
2352,2023-08-19 16:54:53.135,1,0.0,0,0,0,1
2353,2023-08-19 16:54:53.342,-1,1.0,0,0,0,1
2354,2023-08-19 16:54:53.545,1,0.0,0,0,0,1
2355,2023-08-19 16:54:53.738,0,0.0,0,0,0,1
2356,2023-08-19 16:54:53.945,0,-1.0,0,0,0,1
2357,2023-08-19 16:54:54.137,0,2.0,0,0,0,1
2358,2023-08-19 16:54:54.344,1,0.0,0,0,0,1
2359,2023-08-19 16:54:54.548,0,-4.0,0,0,0,1
2360,2023-08-19 16:54:54.739,-3,5.0,0,0,0,1
2361,2023-08-19 16:54:54.947,6,-2.0,0,0,0,1
2362,2023-08-19 16:54:55.139,-4,0.0,0,0,0,1
2363,2023-08-19 16:54:55.345,0,-1.0,0,0,0,1
2364,2023-08-19 16:54:55.557,2,3.0,0,0,0,1
2365,2023-08-19 16:54:55.755,0,-2.0,0,0,0,1
2366,2023-08-19 16:54:55.956,-1,0.0,0,0,0,1
2367,2023-08-19 16:54:56.160,2,2.0,0,0,0,1
2368,2023-08-19 16:54:56.351,-2,-5.0,0,0,0,1
2369,2023-08-19 16:54:56.559,1,5.0,0,0,0,1
2370,2023-08-19 16:54:56.751,0,-3.0,0,0,0,1
2371,2023-08-19 16:54:56.959,-1,0.0,0,0,0,1
2372,2023-08-19 16:54:57.164,0,1.0,0,0,0,1
2373,2023-08-19 16:54:57.354,1,0.0,0,0,0,1
2374,2023-08-19 16:54:57.564,-1,0.0,0,0,0,1
2375,2023-08-19 16:54:57.764,0,0.0,0,0,0,1
2376,2023-08-19 16:54:57.957,0,0.0,0,0,0,1
2377,2023-08-19 16:54:58.160,0,0.0,0,0,0,1
2378,2023-08-19 16:54:58.366,0,0.0,0,0,0,1
2379,2023-08-19 16:54:58.563,0,0.0,0,0,0,1
2380,2023-08-19 16:54:58.769,0,0.0,0,0,0,1
2381,2023-08-19 16:54:58.969,0,-1.0,0,0,0,1
2382,2023-08-19 16:54:59.163,0,1.0,0,0,0,1
2383,2023-08-19 16:54:59.368,0,0.0,0,0,0,1
2384,2023-08-19 16:54:59.569,-1,0.0,0,0,0,1
2385,2023-08-19 16:54:59.762,0,0.0,0,0,0,1
2386,2023-08-19 16:54:59.965,0,0.0,0,0,0,1
2387,2023-08-19 16:55:00.177,0,0.0,0,0,0,1
2388,2023-08-19 16:55:00.379,0,0.0,0,0,0,1
2389,2023-08-19 16:55:00.567,0,0.0,0,0,0,1
2390,2023-08-19 16:55:00.770,0,0.0,0,0,0,1
2391,2023-08-19 16:55:00.973,-1,0.0,0,0,0,1
2392,2023-08-19 16:55:01.176,0,0.0,0,0,0,1
2393,2023-08-19 16:55:01.379,0,0.0,0,0,0,1
2394,2023-08-19 16:55:01.571,0,-1.0,0,0,0,1
2395,2023-08-19 16:55:01.779,0,1.0,0,0,0,1
2396,2023-08-19 16:55:01.971,0,-1.0,0,0,0,1
2397,2023-08-19 16:55:02.183,0,0.0,0,0,0,1
2398,2023-08-19 16:55:02.386,0,0.0,0,0,0,1
2399,2023-08-19 16:55:02.578,1,-1.0,0,0,0,1
2400,2023-08-19 16:55:02.787,-1,2.0,0,0,0,1
2401,2023-08-19 16:55:02.988,1,-2.0,0,0,0,1
2402,2023-08-19 16:55:03.185,-3,4.0,0,0,0,1
2403,2023-08-19 16:55:03.381,5,-5.0,0,0,0,1
2404,2023-08-19 16:55:03.588,-9,4.0,0,0,0,1
2405,2023-08-19 16:55:03.779,10,-1.0,0,0,0,1
2406,2023-08-19 16:55:03.985,-8,0.0,0,0,0,1
2407,2023-08-19 16:55:04.192,3,0.0,0,0,0,1
2408,2023-08-19 16:55:04.383,0,1.0,0,0,0,1
2409,2023-08-19 16:55:04.593,0,0.0,0,0,0,1
2410,2023-08-19 16:55:04.797,1,-1.0,0,0,0,1
2411,2023-08-19 16:55:04.986,-3,0.0,0,0,0,1
2412,2023-08-19 16:55:05.191,5,2.0,0,0,0,1
2413,2023-08-19 16:55:05.392,-4,-4.0,0,0,0,1
2414,2023-08-19 16:55:05.598,0,3.0,0,0,0,1
2415,2023-08-19 16:55:05.796,1,-1.0,0,0,0,1
2416,2023-08-19 16:55:05.994,-1,0.0,0,0,0,1
2417,2023-08-19 16:55:06.200,0,0.0,0,0,0,1
2418,2023-08-19 16:55:06.391,2,0.0,0,0,0,1
2419,2023-08-19 16:55:06.603,-2,0.0,0,0,0,1
2420,2023-08-19 16:55:06.804,1,0.0,0,0,0,1
2421,2023-08-19 16:55:06.997,0,0.0,0,0,0,1
2422,2023-08-19 16:55:07.207,0,0.0,0,0,0,1
2423,2023-08-19 16:55:07.407,0,0.0,0,0,0,1
2424,2023-08-19 16:55:07.602,0,0.0,0,0,0,1
2425,2023-08-19 16:55:07.794,-1,-1.0,0,0,0,1
2426,2023-08-19 16:55:08.004,1,3.0,0,0,0,1
2427,2023-08-19 16:55:08.209,0,-4.0,0,0,0,1
2428,2023-08-19 16:55:08.402,0,5.0,0,0,0,1
2429,2023-08-19 16:55:08.612,0,-4.0,0,0,0,1
2430,2023-08-19 16:55:08.810,0,3.0,0,0,0,1
2431,2023-08-19 16:55:09.007,-1,-2.0,0,0,0,1
2432,2023-08-19 16:55:09.214,2,2.0,0,0,0,1
2433,2023-08-19 16:55:09.409,0,0.0,0,0,0,1
2434,2023-08-19 16:55:09.614,-1,-1.0,0,0,0,1
2435,2023-08-19 16:55:09.808,2,2.0,0,0,0,1
2436,2023-08-19 16:55:10.010,-1,-1.0,0,0,0,1
2437,2023-08-19 16:55:10.216,0,0.0,0,0,0,1
2438,2023-08-19 16:55:10.420,-1,0.0,0,0,0,1
2439,2023-08-19 16:55:10.615,1,0.0,0,0,0,1
2440,2023-08-19 16:55:10.821,-1,-1.0,0,0,0,1
2441,2023-08-19 16:55:11.013,0,2.0,0,0,0,1
2442,2023-08-19 16:55:11.220,1,-1.0,0,0,0,1
2443,2023-08-19 16:55:11.423,-1,0.0,0,0,0,1
2444,2023-08-19 16:55:11.618,0,2.0,0,0,0,1
2445,2023-08-19 16:55:11.826,1,-3.0,0,0,0,1
2446,2023-08-19 16:55:12.016,-2,2.0,0,0,0,1
2447,2023-08-19 16:55:12.223,1,0.0,0,0,0,1
2448,2023-08-19 16:55:12.423,0,0.0,0,0,0,1
2449,2023-08-19 16:55:12.624,0,0.0,0,0,0,1
2450,2023-08-19 16:55:12.830,0,0.0,0,0,0,1
2451,2023-08-19 16:55:13.023,1,1.0,0,0,0,1
2452,2023-08-19 16:55:13.232,0,-1.0,0,0,0,1
2453,2023-08-19 16:55:13.426,0,0.0,0,0,0,1
2454,2023-08-19 16:55:13.628,0,0.0,0,0,0,1
2455,2023-08-19 16:55:13.821,3,4.0,0,0,0,1
2456,2023-08-19 16:55:14.028,-3,-11.0,0,0,0,1
2457,2023-08-19 16:55:14.235,0,15.0,0,0,0,1
2458,2023-08-19 16:55:14.437,5,-14.0,0,0,0,1
2459,2023-08-19 16:55:14.638,-8,12.0,0,0,0,1
2460,2023-08-19 16:55:14.841,10,-8.0,0,0,0,1
2461,2023-08-19 16:55:15.032,-9,3.0,0,0,0,1
2462,2023-08-19 16:55:15.237,5,0.0,0,0,0,1
2463,2023-08-19 16:55:15.429,-1,0.0,0,0,0,1
2464,2023-08-19 16:55:15.638,0,-1.0,0,0,0,1
2465,2023-08-19 16:55:15.844,0,2.0,0,0,0,1
2466,2023-08-19 16:55:16.035,1,-1.0,0,0,0,1
2467,2023-08-19 16:55:16.244,-2,0.0,0,0,0,1
2468,2023-08-19 16:55:16.446,1,0.0,0,0,0,1
2469,2023-08-19 16:55:16.635,0,1.0,0,0,0,1
2470,2023-08-19 16:55:16.845,0,-2.0,0,0,0,1
2471,2023-08-19 16:55:17.036,0,2.0,0,0,0,1
2472,2023-08-19 16:55:17.245,1,-1.0,0,0,0,1
2473,2023-08-19 16:55:17.447,-1,2.0,0,0,0,1
2474,2023-08-19 16:55:17.650,1,-2.0,0,0,0,1
2475,2023-08-19 16:55:17.844,-2,0.0,0,0,0,1
2476,2023-08-19 16:55:18.051,2,1.0,0,0,0,1
2477,2023-08-19 16:55:18.244,-1,-1.0,0,0,0,1
2478,2023-08-19 16:55:18.452,1,1.0,0,0,0,1
2479,2023-08-19 16:55:18.653,-2,0.0,0,0,0,1
2480,2023-08-19 16:55:18.860,2,0.0,0,0,0,1
2481,2023-08-19 16:55:19.052,-2,0.0,0,0,0,1
2482,2023-08-19 16:55:19.261,0,0.0,0,0,0,1
2483,2023-08-19 16:55:19.462,0,1.0,0,0,0,1
2484,2023-08-19 16:55:19.662,0,-2.0,0,0,0,1
2485,2023-08-19 16:55:19.852,0,2.0,0,0,0,1
2486,2023-08-19 16:55:20.056,0,-2.0,0,0,0,1
2487,2023-08-19 16:55:20.264,0,0.0,0,0,0,1
2488,2023-08-19 16:55:20.457,0,1.0,0,0,0,1
2489,2023-08-19 16:55:20.661,0,-1.0,0,0,0,1
2490,2023-08-19 16:55:20.852,-1,1.0,0,0,0,1
2491,2023-08-19 16:55:21.060,1,0.0,0,0,0,1
2492,2023-08-19 16:55:21.267,0,0.0,0,0,0,1
2493,2023-08-19 16:55:21.460,0,-1.0,0,0,0,1
2494,2023-08-19 16:55:21.668,1,2.0,0,0,0,1
2495,2023-08-19 16:55:21.860,-1,-2.0,0,0,0,1
2496,2023-08-19 16:55:22.065,0,2.0,0,0,0,1
2497,2023-08-19 16:55:22.271,0,-1.0,0,0,0,1
2498,2023-08-19 16:55:22.461,-1,0.0,0,0,0,1
2499,2023-08-19 16:55:22.666,1,0.0,0,0,0,1
2500,2023-08-19 16:55:22.860,-1,0.0,0,0,0,1
2501,2023-08-19 16:55:23.073,0,0.0,0,0,0,1
2502,2023-08-19 16:55:23.275,0,2.0,0,0,0,1
2503,2023-08-19 16:55:23.479,-1,-4.0,0,0,0,1
2504,2023-08-19 16:55:23.680,0,5.0,0,0,0,1
2505,2023-08-19 16:55:23.880,1,-3.0,0,0,0,1
2506,2023-08-19 16:55:24.071,-1,2.0,0,0,0,1
2507,2023-08-19 16:55:24.279,0,-3.0,0,0,0,1
2508,2023-08-19 16:55:24.483,2,5.0,0,0,0,1
2509,2023-08-19 16:55:24.678,0,-6.0,0,0,0,1
2510,2023-08-19 16:55:24.885,-2,3.0,0,0,0,1
2511,2023-08-19 16:55:25.077,2,0.0,0,0,0,1
2512,2023-08-19 16:55:25.278,0,-2.0,0,0,0,1
2513,2023-08-19 16:55:25.485,-2,1.0,0,0,0,1
2514,2023-08-19 16:55:25.681,3,0.0,0,0,0,1
2515,2023-08-19 16:55:25.884,-1,-1.0,0,0,0,1
2516,2023-08-19 16:55:26.078,-1,0.0,0,0,0,1
2517,2023-08-19 16:55:26.280,2,1.0,0,0,0,1
2518,2023-08-19 16:55:26.486,0,0.0,0,0,0,1
2519,2023-08-19 16:55:26.690,0,0.0,0,0,0,1
2520,2023-08-19 16:55:26.883,0,0.0,0,0,0,1
2521,2023-08-19 16:55:27.085,2,4.0,0,0,0,1
2522,2023-08-19 16:55:27.293,-1,-7.0,0,0,0,1
2523,2023-08-19 16:55:27.487,-1,6.0,0,0,0,1
2524,2023-08-19 16:55:27.690,2,-3.0,0,0,0,1
2525,2023-08-19 16:55:27.883,0,1.0,0,0,0,1
2526,2023-08-19 16:55:28.090,0,-1.0,0,0,0,1
2527,2023-08-19 16:55:28.295,0,1.0,0,0,0,1
2528,2023-08-19 16:55:28.498,0,0.0,0,0,0,1
2529,2023-08-19 16:55:28.690,0,-1.0,0,0,0,1
2530,2023-08-19 16:55:28.894,-2,1.0,0,0,0,1
2531,2023-08-19 16:55:29.100,2,0.0,0,0,0,1
2532,2023-08-19 16:55:29.304,0,1.0,0,0,0,1
2533,2023-08-19 16:55:29.495,-3,-5.0,0,0,0,1
2534,2023-08-19 16:55:29.701,3,7.0,0,0,0,1
2535,2023-08-19 16:55:29.906,0,-4.0,0,0,0,1
2536,2023-08-19 16:55:30.107,0,0.0,0,0,0,1
2537,2023-08-19 16:55:30.308,0,0.0,0,0,0,1
2538,2023-08-19 16:55:30.495,1,0.0,0,0,0,1
2539,2023-08-19 16:55:30.702,1,0.0,0,0,0,1
2540,2023-08-19 16:55:30.910,-4,-3.0,0,0,0,1
2541,2023-08-19 16:55:31.101,5,5.0,0,0,0,1
2542,2023-08-19 16:55:31.309,-2,-4.0,0,0,0,1
2543,2023-08-19 16:55:31.506,0,4.0,0,0,0,1
2544,2023-08-19 16:55:31.709,0,-4.0,0,0,0,1
2545,2023-08-19 16:55:31.901,-1,4.0,0,0,0,1
2546,2023-08-19 16:55:32.113,1,-4.0,0,0,0,1
2547,2023-08-19 16:55:32.315,1,7.0,0,0,0,1
2548,2023-08-19 16:55:32.508,-2,-9.0,0,0,0,1
2549,2023-08-19 16:55:32.713,0,6.0,0,0,0,1
2550,2023-08-19 16:55:32.914,3,0.0,0,0,0,1
2551,2023-08-19 16:55:33.121,-2,-6.0,0,0,0,1
2552,2023-08-19 16:55:33.322,-1,7.0,0,0,0,1
2553,2023-08-19 16:55:33.512,3,-3.0,0,0,0,1
2554,2023-08-19 16:55:33.721,-1,0.0,0,0,0,1
2555,2023-08-19 16:55:33.913,-2,0.0,0,0,0,1
2556,2023-08-19 16:55:34.121,7,1.0,0,0,0,1
2557,2023-08-19 16:55:34.320,-9,-4.0,0,0,0,1
2558,2023-08-19 16:55:34.519,6,4.0,0,0,0,1
2559,2023-08-19 16:55:34.727,-1,-1.0,0,0,0,1
2560,2023-08-19 16:55:34.921,-1,-1.0,0,0,0,1
2561,2023-08-19 16:55:35.126,0,1.0,0,0,0,1
2562,2023-08-19 16:55:35.329,0,0.0,0,0,0,1
2563,2023-08-19 16:55:35.528,-1,-2.0,0,0,0,1
2564,2023-08-19 16:55:35.721,1,3.0,0,0,0,1
2565,2023-08-19 16:55:35.931,0,-2.0,0,0,0,1
2566,2023-08-19 16:55:36.131,0,0.0,0,0,0,1
2567,2023-08-19 16:55:36.325,1,1.0,0,0,0,1
2568,2023-08-19 16:55:36.521,0,0.0,0,0,0,1
2569,2023-08-19 16:55:36.726,-3,-1.0,0,0,0,1
2570,2023-08-19 16:55:36.932,7,4.0,0,0,0,1
2571,2023-08-19 16:55:37.124,-6,-4.0,0,0,0,1
2572,2023-08-19 16:55:37.332,1,1.0,0,0,0,1
2573,2023-08-19 16:55:37.538,2,0.0,0,0,0,1
2574,2023-08-19 16:55:37.730,-2,0.0,0,0,0,1
2575,2023-08-19 16:55:37.938,0,-1.0,0,0,0,1
2576,2023-08-19 16:55:38.133,0,1.0,0,0,0,1
2577,2023-08-19 16:55:38.337,0,1.0,0,0,0,1
2578,2023-08-19 16:55:38.544,1,-3.0,0,0,0,1
2579,2023-08-19 16:55:38.745,-3,3.0,0,0,0,1
2580,2023-08-19 16:55:38.945,3,-3.0,0,0,0,1
2581,2023-08-19 16:55:39.135,-4,1.0,0,0,0,1
2582,2023-08-19 16:55:39.339,6,2.0,0,0,0,1
2583,2023-08-19 16:55:39.547,-2,-1.0,0,0,0,1
2584,2023-08-19 16:55:39.738,-4,-7.0,0,0,0,1
2585,2023-08-19 16:55:39.944,5,17.0,0,0,0,1
2586,2023-08-19 16:55:40.149,1,-17.0,0,0,0,1
2587,2023-08-19 16:55:40.337,-7,10.0,0,0,0,1
2588,2023-08-19 16:55:40.545,6,-4.0,0,0,0,1
2589,2023-08-19 16:55:40.749,-2,1.0,0,0,0,1
2590,2023-08-19 16:55:40.938,1,0.0,0,0,0,1
2591,2023-08-19 16:55:41.145,-2,-5.0,0,0,0,1
2592,2023-08-19 16:55:41.354,2,9.0,0,0,0,1
2593,2023-08-19 16:55:41.545,-1,-9.0,0,0,0,1
2594,2023-08-19 16:55:41.750,0,6.0,0,0,0,1
2595,2023-08-19 16:55:41.957,0,-2.0,0,0,0,1
2596,2023-08-19 16:55:42.149,0,-1.0,0,0,0,1
2597,2023-08-19 16:55:42.354,0,3.0,0,0,0,1
2598,2023-08-19 16:55:42.562,0,-4.0,0,0,0,1
2599,2023-08-19 16:55:42.757,-1,2.0,0,0,0,1
2600,2023-08-19 16:55:42.963,2,0.0,0,0,0,1
2601,2023-08-19 16:55:43.154,-1,-2.0,0,0,0,1
2602,2023-08-19 16:55:43.365,0,2.0,0,0,0,1
2603,2023-08-19 16:55:43.565,0,-1.0,0,0,0,1
2604,2023-08-19 16:55:43.766,-1,0.0,0,0,0,1
2605,2023-08-19 16:55:43.962,1,0.0,0,0,0,1
2606,2023-08-19 16:55:44.168,-1,-1.0,0,0,0,1
2607,2023-08-19 16:55:44.360,0,0.0,0,0,0,1
2608,2023-08-19 16:55:44.569,2,2.0,0,0,0,1
2609,2023-08-19 16:55:44.764,-2,-4.0,0,0,0,1
2610,2023-08-19 16:55:44.966,0,3.0,0,0,0,1
2611,2023-08-19 16:55:45.170,1,0.0,0,0,0,1
2612,2023-08-19 16:55:45.359,-1,-1.0,0,0,0,1
0,2023-08-22 13:59:04.790,-1,-4,1,0,0,0
1,2023-08-22 13:59:04.985,-2,0,1,0,0,0
2,2023-08-22 13:59:05.185,1,2,1,0,0,0
3,2023-08-22 13:59:05.385,2,-1,1,0,0,0
4,2023-08-22 13:59:05.587,-4,0,1,0,0,0
5,2023-08-22 13:59:05.788,2,1,1,0,0,0
6,2023-08-22 13:59:05.986,0,0,1,0,0,0
7,2023-08-22 13:59:06.189,0,0,1,0,0,0
8,2023-08-22 13:59:06.390,0,0,1,0,0,0
9,2023-08-22 13:59:06.590,1,1,1,0,0,0
10,2023-08-22 13:59:06.791,0,0,1,0,0,0
11,2023-08-22 13:59:06.992,0,-1,1,0,0,0
12,2023-08-22 13:59:07.193,-1,1,1,0,0,0
13,2023-08-22 13:59:07.394,2,0,1,0,0,0
14,2023-08-22 13:59:07.595,-1,0,1,0,0,0
15,2023-08-22 13:59:07.795,0,0,1,0,0,0
16,2023-08-22 13:59:07.996,0,0,1,0,0,0
17,2023-08-22 13:59:08.196,0,0,1,0,0,0
18,2023-08-22 13:59:08.397,-2,0,1,0,0,0
19,2023-08-22 13:59:08.598,1,1,1,0,0,0
20,2023-08-22 13:59:08.798,0,-1,1,0,0,0
21,2023-08-22 13:59:09.000,-2,0,1,0,0,0
22,2023-08-22 13:59:09.200,2,0,1,0,0,0
23,2023-08-22 13:59:09.405,0,0,1,0,0,0
24,2023-08-22 13:59:09.606,0,0,1,0,0,0
25,2023-08-22 13:59:09.806,0,0,1,0,0,0
26,2023-08-22 13:59:10.007,0,0,1,0,0,0
27,2023-08-22 13:59:10.207,0,-1,1,0,0,0
28,2023-08-22 13:59:10.408,-1,1,1,0,0,0
29,2023-08-22 13:59:10.609,1,-1,1,0,0,0
30,2023-08-22 13:59:10.803,-1,1,1,0,0,0
31,2023-08-22 13:59:11.011,1,0,1,0,0,0
32,2023-08-22 13:59:11.210,-1,0,1,0,0,0
33,2023-08-22 13:59:11.411,0,0,1,0,0,0
34,2023-08-22 13:59:11.611,0,0,1,0,0,0
35,2023-08-22 13:59:11.810,0,0,1,0,0,0
36,2023-08-22 13:59:12.010,0,-2,1,0,0,0
37,2023-08-22 13:59:12.212,-3,2,1,0,0,0
38,2023-08-22 13:59:12.415,4,-1,1,0,0,0
39,2023-08-22 13:59:12.616,-4,0,1,0,0,0
40,2023-08-22 13:59:12.815,1,0,1,0,0,0
41,2023-08-22 13:59:13.011,0,1,1,0,0,0
42,2023-08-22 13:59:13.218,0,-2,1,0,0,0
43,2023-08-22 13:59:13.419,-1,1,1,0,0,0
44,2023-08-22 13:59:13.619,1,0,1,0,0,0
45,2023-08-22 13:59:13.816,-1,-1,1,0,0,0
46,2023-08-22 13:59:14.025,0,1,1,0,0,0
47,2023-08-22 13:59:14.221,0,0,1,0,0,0
48,2023-08-22 13:59:14.426,0,0,1,0,0,0
49,2023-08-22 13:59:14.627,0,0,1,0,0,0
50,2023-08-22 13:59:14.825,0,0,1,0,0,0
51,2023-08-22 13:59:15.028,0,0,1,0,0,0
52,2023-08-22 13:59:15.225,1,0,1,0,0,0
53,2023-08-22 13:59:15.429,0,-1,1,0,0,0
54,2023-08-22 13:59:15.630,0,1,1,0,0,0
55,2023-08-22 13:59:15.830,1,-2,1,0,0,0
56,2023-08-22 13:59:16.031,-1,1,1,0,0,0
57,2023-08-22 13:59:16.231,1,-1,1,0,0,0
58,2023-08-22 13:59:16.430,0,0,1,0,0,0
59,2023-08-22 13:59:16.633,0,0,1,0,0,0
60,2023-08-22 13:59:16.834,1,0,1,0,0,0
61,2023-08-22 13:59:17.030,0,0,1,0,0,0
62,2023-08-22 13:59:17.230,0,0,1,0,0,0
63,2023-08-22 13:59:17.434,0,1,1,0,0,0
64,2023-08-22 13:59:17.635,0,-1,1,0,0,0
65,2023-08-22 13:59:17.833,0,1,1,0,0,0
66,2023-08-22 13:59:18.033,0,-1,1,0,0,0
67,2023-08-22 13:59:18.239,-1,1,1,0,0,0
68,2023-08-22 13:59:18.439,1,0,1,0,0,0
69,2023-08-22 13:59:18.644,0,0,1,0,0,0
70,2023-08-22 13:59:18.842,0,0,1,0,0,0
71,2023-08-22 13:59:19.045,0,0,1,0,0,0
72,2023-08-22 13:59:19.245,0,0,1,0,0,0
73,2023-08-22 13:59:19.441,0,0,1,0,0,0
74,2023-08-22 13:59:19.648,0,0,1,0,0,0
75,2023-08-22 13:59:19.845,0,0,1,0,0,0
76,2023-08-22 13:59:20.048,0,0,1,0,0,0
77,2023-08-22 13:59:20.251,0,0,1,0,0,0
78,2023-08-22 13:59:20.451,-1,1,1,0,0,0
79,2023-08-22 13:59:20.651,4,-1,1,0,0,0
80,2023-08-22 13:59:20.851,-4,0,1,0,0,0
81,2023-08-22 13:59:21.053,1,0,1,0,0,0
82,2023-08-22 13:59:21.251,1,1,1,0,0,0
83,2023-08-22 13:59:21.455,-2,-3,1,0,0,0
84,2023-08-22 13:59:21.655,0,2,1,0,0,0
85,2023-08-22 13:59:21.856,1,0,1,0,0,0
86,2023-08-22 13:59:22.055,0,-1,1,0,0,0
87,2023-08-22 13:59:22.254,-1,1,1,0,0,0
