TIME,EMG1,EMG2,EMG3,EMG4,EMG5,THUMB,MIDDLE,LITTLE
43:13.6,730,731,759,732,708,1,1,1
43:13.6,735,735,771,739,715,1,1,1
43:13.6,724,716,773,733,712,1,1,1
43:13.6,735,735,754,739,714,1,1,1
43:13.7,727,734,777,731,712,1,1,1
43:13.7,731,730,774,735,712,1,1,1
43:13.7,730,734,771,744,715,1,1,1
43:13.7,734,731,773,735,719,1,1,1
43:13.8,728,733,815,744,714,1,1,1
43:13.8,735,738,782,739,708,1,1,1
43:13.8,731,732,771,735,719,1,1,1
43:13.8,725,727,871,751,728,1,1,1
43:13.8,726,729,786,730,710,1,1,1
43:13.9,726,730,753,733,709,1,1,1
43:13.9,706,719,776,727,739,1,1,1
43:13.9,707,735,784,736,703,1,1,1
43:13.9,740,726,771,731,711,1,1,1
43:13.9,730,722,770,730,703,1,1,1
43:13.9,735,751,769,736,714,1,1,1
43:13.9,708,736,769,729,723,1,1,1
43:14.0,743,739,763,747,715,1,1,1
43:14.0,754,739,792,739,722,1,1,1
43:14.1,730,743,783,731,722,1,1,1
43:14.1,759,742,816,758,716,1,1,1
43:14.1,727,745,768,748,722,1,1,1
43:14.1,722,731,761,730,715,1,1,1
43:14.1,735,736,775,718,719,1,1,1
43:14.1,732,736,764,769,711,1,1,1
43:14.1,731,735,796,715,787,1,1,1
43:14.2,746,737,809,739,723,1,1,1
43:14.2,736,745,783,741,715,1,1,1
43:14.2,732,735,768,739,718,1,1,1
43:14.2,728,731,774,741,718,1,1,1
43:14.2,750,734,762,743,729,1,1,1
43:14.3,720,728,778,737,714,1,1,1
43:14.3,733,748,760,747,716,1,1,1
43:14.3,741,732,833,737,741,1,1,1
43:14.3,723,730,728,731,724,1,1,1
43:14.3,746,738,773,739,789,1,1,1
43:14.4,750,728,771,723,715,1,1,1
43:14.4,736,732,771,743,713,1,1,1
43:14.4,741,735,659,735,718,1,1,1
43:14.4,730,724,814,759,717,1,1,1
43:14.5,741,742,805,749,753,1,1,1
43:14.5,739,735,746,731,739,1,1,1
43:14.5,733,739,764,712,717,1,1,1
43:14.5,731,740,778,736,720,1,1,1
43:14.5,723,723,755,723,716,1,1,1
43:14.6,734,725,761,731,717,1,1,1
43:14.6,727,728,757,745,710,1,1,1
43:14.6,731,731,771,743,732,1,1,1
43:14.6,725,721,749,731,719,1,1,1
43:14.6,735,735,789,746,701,1,1,1
43:14.7,735,733,795,739,722,1,1,1
43:14.7,735,735,783,747,719,1,1,1
43:14.7,731,731,752,723,716,1,1,1
43:14.7,732,742,779,737,724,1,1,1
43:14.8,733,705,780,740,720,1,1,1
43:14.8,731,732,772,735,715,1,1,1
43:14.8,723,728,765,747,710,1,1,1
43:14.8,716,748,775,737,715,1,1,1
43:14.8,737,739,767,733,718,1,1,1
43:14.9,720,730,764,736,716,1,1,1
43:14.9,732,728,766,736,717,1,1,1
43:14.9,725,707,771,732,710,1,1,1
43:14.9,725,720,763,726,712,1,1,1
43:14.9,730,721,767,738,720,1,1,1
43:14.9,738,736,776,727,724,1,1,1
43:14.9,739,744,774,757,723,1,1,1
43:14.9,738,732,773,762,719,1,1,1
43:14.9,747,735,779,735,722,1,1,1
43:15.0,738,732,816,746,725,1,1,1
43:15.0,739,738,802,749,713,1,1,1
43:15.0,731,731,775,740,714,1,1,1
43:15.1,737,738,784,753,724,1,1,1
43:15.1,732,739,776,746,736,1,1,1
43:15.1,740,737,827,734,728,1,1,1
43:15.1,733,739,786,739,731,1,1,1
43:15.2,742,771,771,748,723,1,1,1
43:15.2,742,742,787,741,715,1,1,1
43:15.2,743,757,779,752,728,1,1,1
43:15.2,741,721,817,744,724,1,1,1
43:15.2,737,735,746,744,722,1,1,1
43:15.3,740,746,794,747,723,1,1,1
43:15.3,740,743,772,750,723,1,1,1
43:15.3,735,727,769,729,719,1,1,1
43:15.3,738,737,702,736,723,1,1,1
43:15.3,742,743,781,792,722,1,1,1
43:15.4,743,742,766,734,720,1,1,1
43:15.4,770,732,781,734,720,1,1,1
43:15.4,739,731,671,739,725,1,1,1
43:15.4,732,731,764,744,728,1,1,1
43:15.5,735,735,789,757,731,1,1,1
43:15.5,733,731,777,737,717,1,1,1
43:15.5,732,738,778,739,729,1,1,1
43:15.5,726,723,745,735,734,1,1,1
43:15.5,730,724,755,730,713,1,1,1
43:15.6,727,727,767,733,707,1,1,1
43:15.6,718,728,787,730,718,1,1,1
43:15.6,725,719,762,729,719,1,1,1
43:15.6,726,706,756,728,712,1,1,1
43:15.6,731,732,743,739,715,1,1,1
43:15.6,740,718,789,738,719,1,1,1
43:15.6,732,739,792,740,717,1,1,1
43:15.7,733,726,743,744,723,1,1,1
43:15.7,737,737,733,737,719,1,1,1
43:15.7,735,732,772,744,728,1,1,1
43:15.7,733,731,790,736,723,1,1,1
43:15.7,738,733,780,698,720,1,1,1
43:15.8,737,736,771,727,723,1,1,1
43:15.8,735,729,775,758,724,1,1,1
43:15.8,733,728,820,731,725,1,1,1
43:15.8,737,739,771,755,715,1,1,1
43:15.8,730,731,760,731,721,1,1,1
43:15.9,729,729,796,740,714,1,1,1
43:15.9,733,739,751,737,727,1,1,1
43:15.9,737,729,807,735,721,1,1,1
43:15.9,733,735,771,741,713,1,1,1
43:15.9,731,732,756,731,722,1,1,1
43:15.9,730,729,755,735,715,1,1,1
43:15.9,726,683,760,734,728,1,1,1
43:16.0,731,731,761,735,717,1,1,1
43:16.0,734,739,769,744,715,1,1,1
43:16.1,732,730,782,733,710,1,1,1
43:16.1,735,741,747,738,724,1,1,1
43:16.1,735,732,796,739,731,1,1,1
43:16.1,734,724,802,740,715,1,1,1
43:16.1,731,731,763,745,720,1,1,1
43:16.2,732,734,696,731,719,1,1,1
43:16.2,739,737,778,745,719,1,1,1
43:16.2,738,735,777,731,718,1,1,1
43:16.2,738,734,761,742,723,1,1,1
43:16.3,732,736,772,742,724,1,1,1
43:16.3,737,735,771,732,723,1,1,1
43:16.3,733,732,738,748,721,1,1,1
43:16.3,736,736,774,745,720,1,1,1
43:16.3,735,726,718,731,737,1,1,1
43:16.3,736,734,831,736,737,1,1,1
43:16.3,733,723,774,743,731,1,1,1
43:16.4,736,735,748,738,723,1,1,1
43:16.4,731,729,754,747,720,1,1,1
43:16.4,731,734,775,743,730,1,1,1
43:16.4,734,738,770,741,710,1,1,1
43:16.4,735,703,775,750,716,1,1,1
43:16.5,729,740,767,738,715,1,1,1
43:16.5,727,742,753,733,710,1,1,1
43:16.5,727,711,763,726,711,1,1,1
43:16.5,732,751,762,731,718,1,1,1
43:16.5,727,727,774,735,716,1,1,1
43:16.6,730,724,774,735,713,1,1,1
43:16.6,728,731,758,727,711,1,1,1
43:16.6,729,733,747,742,719,1,1,1
43:16.6,739,735,764,729,721,1,1,1
43:16.7,735,736,766,712,717,1,1,1
43:16.7,731,731,763,715,716,1,1,1
43:16.7,730,727,763,724,718,1,1,1
43:16.7,730,734,763,729,716,1,1,1
43:16.7,734,728,765,730,720,1,1,1
43:16.8,724,726,757,707,727,1,1,1
43:16.8,725,722,758,744,717,1,1,1
43:16.8,720,725,758,729,712,1,1,1
43:16.8,720,723,745,719,707,1,1,1
43:16.8,723,728,738,727,711,1,1,1
43:16.9,723,727,761,716,708,1,1,1
43:16.9,722,714,751,727,723,1,1,1
43:16.9,724,738,745,731,699,1,1,1
43:16.9,730,737,746,731,708,1,1,1
43:16.9,717,734,762,724,715,1,1,1
43:16.9,726,718,758,728,711,1,1,1
43:16.9,725,730,763,716,707,1,1,1
43:17.0,731,727,757,724,714,1,1,1
43:17.0,747,730,762,730,713,1,1,1
43:17.0,727,726,762,736,708,1,1,1
43:17.0,723,723,757,730,709,1,1,1
43:17.1,729,728,760,725,711,1,1,1
43:17.1,724,727,752,719,707,1,1,1
43:17.1,727,730,763,730,715,1,1,1
43:17.1,726,726,762,712,708,1,1,1
43:17.1,723,728,760,732,739,1,1,1
43:17.2,726,725,777,723,723,1,1,1
43:17.2,710,726,776,730,704,1,1,1
43:17.2,726,723,749,727,724,1,1,1
43:17.2,725,730,769,729,706,1,1,1
43:17.2,723,720,754,724,709,1,1,1
43:17.3,726,725,764,723,707,1,1,1
43:17.3,729,732,760,722,710,1,1,1
43:17.3,721,676,765,729,711,1,1,1
43:17.3,715,723,769,735,715,1,1,1
43:17.4,720,728,763,729,710,1,1,1
43:17.4,723,747,763,728,708,1,1,1
43:17.4,724,726,754,730,710,1,1,1
43:17.4,721,728,751,718,707,1,1,1
43:17.4,727,730,762,726,709,1,1,1
43:17.5,731,731,761,727,709,1,1,1
43:17.5,725,730,770,731,711,1,1,1
43:17.5,728,736,769,729,715,1,1,1
43:17.5,732,732,764,723,713,1,1,1
43:17.5,731,732,763,756,719,1,1,1
43:17.6,736,735,771,734,717,1,1,1
43:17.6,717,732,769,738,716,1,1,1
43:17.6,739,736,766,715,706,1,1,1
43:17.6,728,736,774,739,730,1,1,1
43:17.7,739,736,774,720,715,1,1,1
43:17.7,735,745,781,759,722,1,1,1
43:17.7,728,735,755,741,711,1,1,1
43:17.7,730,740,763,727,722,1,1,1
43:17.7,736,736,771,734,714,1,1,1
43:17.7,737,735,758,737,719,1,1,1
43:17.7,731,753,772,734,724,1,1,1
43:17.8,735,731,766,739,713,1,1,1
43:17.8,729,735,772,740,713,1,1,1
43:17.8,731,732,767,739,714,1,1,1
43:17.8,727,731,759,739,706,1,1,1
43:17.8,724,727,767,731,709,1,1,1
43:17.9,720,727,759,720,700,1,1,1
43:17.9,723,728,769,736,708,1,1,1
43:17.9,728,728,763,727,708,1,1,1
43:17.9,723,728,768,691,707,1,1,1
43:17.9,727,726,762,730,714,1,1,1
43:17.9,727,724,757,723,712,1,1,1
43:17.9,724,732,774,726,714,1,1,1
43:18.0,727,727,763,727,706,1,1,1
43:18.0,725,725,760,713,727,1,1,1
43:18.1,724,726,763,729,695,1,1,1
43:18.1,728,731,764,731,710,1,1,1
43:18.1,724,727,782,731,705,1,1,1
43:18.1,730,730,755,729,703,1,1,1
43:18.1,732,731,745,723,713,1,1,1
43:18.2,733,738,771,731,715,1,1,1
43:18.2,727,752,760,734,714,1,1,1
43:18.2,730,719,765,730,714,1,1,1
43:18.2,729,732,768,732,711,1,1,1
43:18.2,726,723,755,727,710,1,1,1
43:18.3,732,737,779,737,711,1,1,1
43:18.3,736,739,774,725,707,1,1,1
43:18.3,731,737,770,731,713,1,1,1
43:18.3,733,727,772,739,713,1,1,1
43:18.4,723,732,772,716,715,1,1,1
43:18.4,723,729,758,729,710,1,1,1
43:18.4,728,727,764,743,708,1,1,1
43:18.4,725,735,769,711,710,1,1,1
43:18.4,727,727,758,731,701,1,1,1
43:18.4,725,728,772,736,711,1,1,1
43:18.4,728,731,774,727,707,1,1,1
43:18.5,730,729,749,730,710,1,1,1
43:18.5,731,727,755,732,722,1,1,1
43:18.5,730,732,775,727,730,1,1,1
43:18.5,731,733,763,739,715,1,1,1
43:18.5,729,729,771,736,709,1,1,1
43:18.6,730,732,766,734,713,1,1,1
43:18.6,732,708,778,727,712,1,1,1
43:18.6,729,722,773,738,715,1,1,1
43:18.6,731,737,766,739,715,1,1,1
43:18.6,733,755,771,731,710,1,1,1
43:18.7,735,724,771,739,718,1,1,1
43:18.7,726,746,771,733,711,1,1,1
43:18.7,730,737,780,735,717,1,1,1
43:18.7,732,733,775,741,714,1,1,1
43:18.7,727,743,758,711,712,1,1,1
43:18.8,730,732,767,738,715,1,1,1
43:18.8,730,732,783,733,713,1,1,1
43:18.8,725,736,731,741,711,1,1,1
43:18.8,727,731,779,748,710,1,1,1
43:18.9,730,731,777,741,714,1,1,1
43:18.9,731,738,780,732,723,1,1,1
43:18.9,732,738,775,736,711,1,1,1
43:18.9,729,735,770,731,727,1,1,1
43:18.9,726,726,758,725,710,1,1,1
43:18.9,724,734,777,738,709,1,1,1
43:18.9,724,725,758,736,709,1,1,1
43:19.0,727,738,772,728,710,1,1,1
43:19.0,728,731,761,724,731,1,1,1
43:19.0,732,743,763,731,711,1,1,1
43:19.1,728,739,771,736,710,1,1,1
43:19.1,723,735,777,736,709,1,1,1
43:19.1,729,727,765,736,712,1,1,1
43:19.1,723,752,769,731,709,1,1,1
43:19.2,731,734,770,733,709,1,1,1
43:19.2,727,732,770,729,708,1,1,1
43:19.2,727,738,775,733,710,1,1,1
43:19.2,733,736,796,731,719,1,1,1
43:19.2,728,733,771,742,715,1,1,1
43:19.2,733,734,775,747,715,1,1,1
43:19.2,731,731,776,745,715,1,1,1
43:19.3,728,731,774,758,711,1,1,1
43:19.3,729,732,765,730,704,1,1,1
43:19.3,728,735,777,736,714,1,1,1
43:19.3,731,733,774,740,709,1,1,1
43:19.3,726,729,770,736,709,1,1,1
43:19.4,726,731,772,734,722,1,1,1
43:19.4,727,733,763,735,716,1,1,1
43:19.4,725,739,798,731,716,1,1,1
43:19.4,728,723,770,740,715,1,1,1
43:19.4,730,732,770,731,711,1,1,1
43:19.5,728,750,759,730,710,1,1,1
43:19.5,729,740,778,738,707,1,1,1
43:19.5,731,752,768,728,714,1,1,1
43:19.5,723,710,772,728,707,1,1,1
43:19.6,727,735,772,736,717,1,1,1
43:19.6,727,739,769,737,716,1,1,1
43:19.6,731,731,767,728,707,1,1,1
43:19.6,727,739,774,731,715,1,1,1
43:19.6,722,732,779,717,711,1,1,1
43:19.7,725,731,793,742,710,1,1,1
43:19.7,728,738,800,738,717,1,1,1
43:19.7,726,739,775,740,711,1,1,1
43:19.7,725,720,758,723,699,1,1,1
43:19.8,731,735,865,741,731,1,1,1
43:19.8,727,731,723,732,708,1,1,1
43:19.8,728,738,789,731,721,1,1,1
43:19.8,730,729,743,742,737,1,1,1
43:19.8,738,733,692,742,699,1,1,1
43:19.8,726,732,738,728,717,1,1,1
43:19.8,724,732,897,735,698,1,1,1
43:19.9,723,735,696,731,703,1,1,1
43:19.9,737,730,788,736,716,1,1,1
43:19.9,735,728,656,737,711,1,1,1
43:19.9,727,744,713,723,710,1,1,1
43:19.9,731,736,814,744,709,1,1,1
43:19.9,730,719,779,739,710,1,1,1
43:19.9,722,736,599,731,733,1,1,1
43:20.0,732,731,649,721,711,1,1,1
43:20.0,732,731,766,743,714,1,1,1
43:20.0,729,735,773,755,707,1,1,1
43:20.1,731,732,777,754,710,1,1,1
43:20.1,730,732,1023,715,708,1,1,1
43:20.1,735,739,806,724,709,1,1,1
43:20.1,730,735,778,734,708,1,1,1
43:20.2,729,737,732,729,717,1,1,1
43:20.2,731,736,761,733,718,1,1,1
43:20.2,704,736,805,748,707,1,1,1
43:20.2,698,728,738,725,705,1,1,1
43:20.2,731,743,771,763,731,1,1,1
43:20.3,732,742,853,753,712,1,1,1
43:20.3,723,734,832,731,706,1,1,1
43:20.3,719,740,771,729,707,1,1,1
43:20.3,727,742,786,743,707,1,1,1
43:20.3,717,739,789,737,707,1,1,1
43:20.4,787,738,795,742,714,1,1,1
43:20.4,698,751,715,740,716,1,1,1
43:20.4,726,733,793,735,715,1,1,1
43:20.4,714,731,774,724,707,1,1,1
43:20.5,761,735,765,731,751,1,1,1
43:20.5,736,731,771,736,747,1,1,1
43:20.5,695,711,635,735,711,1,1,1
43:20.5,739,739,714,742,704,1,1,1
43:20.5,713,738,819,755,715,1,1,1
43:20.5,696,742,895,746,715,1,1,1
43:20.5,742,733,892,717,708,1,1,1
43:20.6,684,748,792,767,742,1,1,1
43:20.6,777,726,771,731,717,1,1,1
43:20.6,743,735,889,751,701,1,1,1
43:20.6,798,752,795,759,737,1,1,1
43:20.6,735,742,730,739,727,1,1,1
43:20.7,811,739,839,744,729,1,1,1
43:20.7,755,706,758,724,697,1,1,1
43:20.7,755,738,696,740,719,1,1,1
43:20.7,705,741,751,764,718,1,1,1
43:20.7,687,751,880,748,714,1,1,1
43:20.8,657,731,653,723,703,1,1,1
43:20.8,716,736,662,724,714,1,1,1
43:20.8,692,736,961,742,715,1,1,1
43:20.8,707,729,565,725,723,1,1,1
43:20.9,709,747,776,739,747,1,1,1
43:20.9,769,738,675,739,709,1,1,1
43:20.9,744,731,788,736,715,1,1,1
43:20.9,726,735,796,722,705,1,1,1
43:20.9,752,739,771,720,718,1,1,1
43:20.9,731,739,783,745,712,1,1,1
43:20.9,719,740,695,746,714,1,1,1
43:21.0,671,742,762,752,710,1,1,1
43:21.0,607,729,584,739,707,1,1,1
43:21.0,772,734,602,738,714,1,1,1
43:21.1,679,735,754,770,748,1,1,1
43:21.1,695,739,753,735,699,1,1,1
43:21.1,744,724,834,754,720,1,1,1
43:21.1,731,737,792,739,715,1,1,1
43:21.2,683,738,815,731,707,1,1,1
43:21.2,726,739,787,751,714,1,1,1
43:21.2,646,738,794,742,732,1,1,1
43:21.2,783,745,763,755,726,1,1,1
43:21.2,743,742,798,738,720,1,1,1
43:21.2,708,736,844,734,707,1,1,1
43:21.2,703,735,795,744,715,1,1,1
43:21.3,749,728,827,756,719,1,1,1
43:21.3,777,741,784,729,713,1,1,1
43:21.3,741,742,797,740,711,1,1,1
43:21.3,699,735,777,747,714,1,1,1
43:21.3,729,730,806,737,706,1,1,1
43:21.4,725,734,754,740,713,1,1,1
43:21.4,669,721,783,730,705,1,1,1
43:21.4,690,723,815,739,709,1,1,1
43:21.4,826,732,840,742,739,1,1,1
43:21.4,729,733,803,754,734,1,1,1
43:21.5,841,734,859,727,718,1,1,1
43:21.5,709,738,859,712,708,1,1,1
43:21.5,754,735,678,747,718,1,1,1
43:21.5,698,739,714,740,729,1,1,1
43:21.6,711,728,759,732,711,1,1,1
43:21.6,739,735,812,737,711,1,1,1
43:21.6,733,740,789,739,712,1,1,1
43:21.6,771,732,723,732,718,1,1,1
43:21.6,781,744,750,746,711,1,1,1
43:21.7,724,731,778,748,710,1,1,1
43:21.7,685,731,834,741,714,1,1,1
43:21.7,775,728,810,731,715,1,1,1
43:21.7,720,731,874,752,710,1,1,1
43:21.7,725,735,842,740,710,1,1,1
43:21.8,734,740,777,735,708,1,1,1
43:21.8,712,726,740,728,706,1,1,1
43:21.8,739,735,721,775,714,1,1,1
43:21.8,749,721,308,708,704,1,1,1
43:21.9,796,749,706,745,718,1,1,1
43:21.9,728,734,771,731,711,1,1,1
43:21.9,722,735,792,742,675,1,1,1
43:21.9,716,737,783,748,709,1,1,1
43:21.9,731,744,747,729,715,1,1,1
43:21.9,726,747,762,735,708,1,1,1
43:21.9,715,742,810,739,712,1,1,1
43:21.9,616,730,864,737,720,1,1,1
43:21.9,726,725,829,730,711,1,1,1
43:21.9,748,726,773,747,716,1,1,1
43:22.0,723,735,710,715,705,1,1,1
43:22.0,695,741,739,732,705,1,1,1
43:22.1,739,747,748,780,722,1,1,1
43:22.1,719,739,808,727,703,1,1,1
43:22.1,772,729,711,729,712,1,1,1
43:22.1,687,738,789,721,710,1,1,1
43:22.1,663,727,600,732,705,1,1,1
43:22.2,722,731,711,719,697,1,1,1
43:22.2,649,732,729,723,696,1,1,1
43:22.2,694,740,795,802,715,1,1,1
43:22.2,692,731,831,743,710,1,1,1
43:22.3,737,735,754,740,739,1,1,1
43:22.3,774,735,829,729,713,1,1,1
43:22.3,731,743,712,736,726,1,1,1
43:22.3,739,740,901,741,709,1,1,1
43:22.3,688,735,819,746,715,1,1,1
43:22.4,689,732,845,732,707,1,1,1
43:22.4,730,745,740,734,723,1,1,1
43:22.4,722,730,724,732,704,1,1,1
43:22.4,730,747,851,736,709,1,1,1
43:22.4,718,742,824,744,715,1,1,1
43:22.5,756,741,738,744,695,1,1,1
43:22.5,780,740,780,748,714,1,1,1
43:22.5,715,731,849,739,707,1,1,1
43:22.5,736,742,889,739,707,1,1,1
43:22.6,748,732,954,723,705,1,1,1
43:22.6,762,735,836,734,712,1,1,1
43:22.6,699,709,776,741,698,1,1,1
43:22.6,677,733,759,734,710,1,1,1
43:22.6,664,723,739,725,709,1,1,1
43:22.6,743,732,803,731,707,1,1,1
43:22.6,682,739,784,718,707,1,1,1
43:22.7,693,738,740,735,703,1,1,1
43:22.7,719,731,711,737,708,1,1,1
43:22.7,764,733,788,710,721,1,1,1
43:22.7,735,742,715,734,714,1,1,1
43:22.7,704,732,810,707,702,1,1,1
43:22.8,738,731,781,739,724,1,1,1
43:22.8,730,740,800,709,723,1,1,1
43:22.8,726,723,810,697,697,1,1,1
43:22.8,732,725,683,716,706,1,1,1
43:22.8,697,744,876,773,717,1,1,1
43:22.9,726,735,746,735,715,1,1,1
43:22.9,723,732,751,737,707,1,1,1
43:22.9,789,743,752,731,715,1,1,1
43:22.9,718,735,768,736,716,1,1,1
43:22.9,731,738,799,746,718,1,1,1
43:22.9,714,743,795,735,713,1,1,1
43:22.9,784,740,883,736,722,1,1,1
43:23.0,645,728,753,733,705,1,1,1
43:23.0,771,728,843,731,712,1,1,1
43:23.1,753,735,836,750,715,1,1,1
43:23.1,703,734,774,768,711,1,1,1
43:23.1,728,736,703,712,707,1,1,1
43:23.1,683,732,809,729,714,1,1,1
43:23.1,697,725,765,720,705,1,1,1
43:23.2,734,736,781,743,710,1,1,1
43:23.2,705,743,770,742,702,1,1,1
43:23.2,716,723,772,747,714,1,1,1
43:23.2,654,720,721,735,710,1,1,1
43:23.3,734,734,786,745,712,1,1,1
43:23.3,703,732,675,733,711,1,1,1
43:23.3,691,729,779,737,704,1,1,1
43:23.3,707,737,787,734,706,1,1,1
43:23.3,727,736,871,721,710,1,1,1
43:23.3,770,735,803,738,704,1,1,1
43:23.3,773,731,694,747,723,1,1,1
43:23.4,691,736,819,739,712,1,1,1
43:23.4,710,733,762,755,717,1,1,1
43:23.4,744,728,780,734,709,1,1,1
43:23.4,701,727,676,720,703,1,1,1
43:23.4,804,731,779,731,711,1,1,1
43:23.5,812,743,798,737,710,1,1,1
43:23.5,723,734,762,735,709,1,1,1
43:23.5,666,750,817,730,710,1,1,1
43:23.5,724,732,666,723,708,1,1,1
43:23.5,737,731,767,732,714,1,1,1
43:23.6,762,737,820,733,739,1,1,1
43:23.6,718,739,844,723,702,1,1,1
43:23.6,731,738,805,755,710,1,1,1
43:23.6,674,735,876,743,686,1,1,1
43:23.7,757,726,714,737,710,1,1,1
43:23.7,731,727,714,729,708,1,1,1
43:23.7,780,739,758,742,707,1,1,1
43:23.7,709,742,803,745,708,1,1,1
43:23.7,724,740,688,707,715,1,1,1
43:23.8,670,742,788,731,720,1,1,1
43:23.8,691,731,747,730,713,1,1,1
43:23.8,735,737,792,750,715,1,1,1
43:23.8,724,733,766,740,715,1,1,1
43:23.8,721,735,765,739,716,1,1,1
43:23.9,880,730,675,717,715,1,1,1
43:23.9,735,738,784,755,719,1,1,1
43:23.9,715,722,602,724,712,1,1,1
43:23.9,646,742,784,729,709,1,1,1
43:23.9,707,735,739,740,710,1,1,1
43:23.9,775,739,822,794,710,1,1,1
43:23.9,810,760,833,751,719,1,1,1
43:24.0,676,723,825,727,707,1,1,1
43:24.0,634,731,763,750,737,1,1,1
43:24.0,701,732,824,747,676,1,1,1
43:24.0,721,758,819,742,723,1,1,1
43:24.1,723,715,841,740,720,1,1,1
43:24.1,738,725,779,727,690,1,1,1
43:24.1,709,731,863,743,721,1,1,1
43:24.1,734,738,875,715,719,1,1,1
43:24.1,715,726,749,732,707,1,1,1
43:24.2,816,734,695,735,718,1,1,1
43:24.2,706,731,783,723,707,1,1,1
43:24.2,742,742,792,764,715,1,1,1
43:24.2,776,732,708,728,704,1,1,1
43:24.2,718,719,651,723,710,1,1,1
43:24.3,723,728,752,728,708,1,1,1
43:24.3,723,738,821,744,716,1,1,1
43:24.3,687,724,755,715,695,1,1,1
43:24.3,721,729,696,731,707,1,1,1
43:24.4,762,737,806,739,709,1,1,1
43:24.4,694,737,659,747,702,1,1,1
43:24.4,678,724,794,718,699,1,1,1
43:24.4,743,748,847,755,732,1,1,1
43:24.4,791,755,825,776,754,1,1,1
43:24.5,740,746,790,758,675,1,1,1
43:24.5,758,759,855,739,731,1,1,1
43:24.5,784,746,778,733,729,1,1,1
43:24.5,776,732,923,749,721,1,1,1
43:24.5,727,734,930,741,718,1,1,1
43:24.6,747,732,783,739,715,1,1,1
43:24.6,685,731,770,740,713,1,1,1
43:24.6,703,732,744,743,714,1,1,1
43:24.6,826,729,1002,778,732,1,1,1
43:24.7,705,740,790,752,721,1,1,1
43:24.7,739,741,775,754,717,1,1,1
43:24.7,730,720,894,760,705,1,1,1
43:24.7,763,731,793,754,721,1,1,1
43:24.7,717,736,795,751,714,1,1,1
43:24.8,716,758,947,731,723,1,1,1
43:24.8,736,724,786,721,716,1,1,1
43:24.8,748,737,891,772,722,1,1,1
43:24.8,771,726,867,728,720,1,1,1
43:24.8,715,750,803,773,724,1,1,1
43:24.8,722,738,915,747,724,1,1,1
43:24.8,783,715,811,773,723,1,1,1
43:24.9,727,736,857,776,726,1,1,1
43:24.9,729,736,763,747,723,1,1,1
43:24.9,732,728,707,773,714,1,1,1
43:24.9,866,744,780,758,708,1,1,1
43:24.9,763,742,986,733,712,1,1,1
43:24.9,789,728,790,740,718,1,1,1
43:24.9,743,747,773,755,722,1,1,1
43:25.0,694,735,826,716,710,1,1,1
43:25.0,711,731,801,778,715,1,1,1
43:25.1,651,743,728,737,706,1,1,1
43:25.1,733,739,759,741,717,1,1,1
43:25.1,746,740,780,741,719,1,1,1
43:25.1,704,733,771,738,717,1,1,1
43:25.1,802,743,768,751,716,1,1,1
43:25.2,731,733,869,769,724,1,1,1
43:25.2,776,726,781,752,722,1,1,1
43:25.2,720,743,766,733,713,1,1,1
43:25.2,739,734,794,685,715,1,1,1
43:25.2,744,735,732,711,711,1,1,1
43:25.3,749,744,790,729,710,1,1,1
43:25.3,721,742,770,747,726,1,1,1
43:25.3,738,733,793,735,650,1,1,1
43:25.3,698,735,742,752,706,1,1,1
43:25.4,766,724,794,755,717,1,1,1
43:25.4,727,740,805,750,723,1,1,1
43:25.4,734,738,821,732,730,1,1,1
43:25.4,766,730,780,744,708,1,1,1
43:25.4,776,766,795,737,710,1,1,1
43:25.4,737,738,887,739,725,1,1,1
43:25.4,753,734,870,742,709,1,1,1
43:25.5,776,731,775,737,719,1,1,1
43:25.5,770,733,688,714,703,1,1,1
43:25.5,722,741,839,741,717,1,1,1
43:25.5,731,744,748,676,711,1,1,1
43:25.5,623,739,774,742,720,1,1,1
43:25.6,674,752,875,760,718,1,1,1
43:25.6,694,730,771,762,719,1,1,1
43:25.6,713,731,790,741,710,1,1,1
43:25.6,727,728,755,733,706,1,1,1
43:25.6,696,738,780,727,715,1,1,1
43:25.7,762,734,774,733,719,1,1,1
43:25.7,694,731,778,748,721,1,1,1
43:25.7,710,719,743,725,717,1,1,1
43:25.7,664,733,840,735,710,1,1,1
43:25.8,734,748,785,750,693,1,1,1
43:25.8,887,737,795,755,755,1,1,1
43:25.8,731,733,784,739,716,1,1,1
43:25.8,707,739,805,754,714,1,1,1
43:25.8,736,735,748,724,718,1,1,1
43:25.9,722,748,742,742,716,1,1,1
43:25.9,719,727,770,722,723,1,1,1
43:25.9,739,723,801,746,708,1,1,1
43:25.9,698,728,776,744,718,1,1,1
43:25.9,731,739,704,724,708,1,1,1
43:25.9,736,737,799,743,731,1,1,1
43:25.9,713,739,799,739,704,1,1,1
43:26.0,734,723,749,753,709,1,1,1
43:26.0,726,742,814,744,719,1,1,1
43:26.1,703,732,770,738,716,1,1,1
43:26.1,723,731,699,759,711,1,1,1
43:26.1,713,729,715,706,710,1,1,1
43:26.1,753,733,792,754,711,1,1,1
43:26.1,739,728,779,753,730,1,1,1
43:26.1,721,738,771,760,714,1,1,1
43:26.1,752,737,811,732,706,1,1,1
43:26.2,698,736,648,739,731,1,1,1
43:26.2,726,729,800,755,712,1,1,1
43:26.2,760,759,804,752,722,1,1,1
43:26.2,749,736,755,723,700,1,1,1
43:26.2,782,666,699,743,726,1,1,1
43:26.3,714,718,771,744,711,1,1,1
43:26.3,718,746,829,735,709,1,1,1
43:26.3,719,725,785,733,708,1,1,1
43:26.3,745,724,781,747,715,1,1,1
43:26.3,715,737,748,730,713,1,1,1
43:26.4,730,736,790,746,723,1,1,1
43:26.4,720,736,792,741,703,1,1,1
43:26.4,723,729,777,726,715,1,1,1
43:26.4,712,728,652,739,712,1,1,1
43:26.4,719,742,755,745,723,1,1,1
43:26.5,664,739,728,737,703,1,1,1
43:26.5,747,735,793,746,718,1,1,1
43:26.5,730,731,696,721,712,1,1,1
43:26.5,821,742,760,755,718,1,1,1
43:26.6,731,732,755,743,717,1,1,1
43:26.6,692,738,747,746,703,1,1,1
43:26.6,732,730,769,763,747,1,1,1
43:26.6,784,742,769,744,703,1,1,1
43:26.6,720,727,770,739,711,1,1,1
43:26.7,747,737,779,743,711,1,1,1
43:26.7,739,748,822,760,689,1,1,1
43:26.7,708,708,728,733,715,1,1,1
43:26.7,719,739,826,738,714,1,1,1
43:26.8,731,731,723,732,711,1,1,1
43:26.8,749,746,527,673,690,1,1,1
43:26.8,718,755,798,741,715,1,1,1
43:26.8,711,735,787,750,714,1,1,1
43:26.8,745,739,819,757,719,1,1,1
43:26.8,758,731,732,751,739,1,1,1
43:26.8,791,727,804,735,715,1,1,1
43:26.9,791,721,726,750,718,1,1,1
43:26.9,754,728,745,711,705,1,1,1
43:26.9,727,738,772,725,720,1,1,1
43:26.9,731,737,780,746,712,1,1,1
43:26.9,731,737,763,743,715,1,1,1
43:26.9,691,731,772,743,711,1,1,1
43:26.9,691,741,733,734,714,1,1,1
43:27.0,716,739,751,731,696,1,1,1
43:27.0,711,735,790,727,707,1,1,1
43:27.0,727,730,722,746,723,1,1,1
43:27.1,702,724,706,738,699,1,1,1
43:27.1,779,724,813,727,712,1,1,1
43:27.1,736,731,759,731,716,1,1,1
43:27.1,732,734,799,727,719,1,1,1
43:27.2,716,729,708,733,717,1,1,1
43:27.2,760,730,800,747,716,1,1,1
43:27.2,740,738,780,734,754,1,1,1
43:27.2,720,738,761,738,688,1,1,1
43:27.2,769,736,1023,732,707,1,1,1
43:27.3,725,723,798,737,710,1,1,1
43:27.3,707,747,788,748,712,1,1,1
43:27.3,707,721,731,726,708,1,1,1
43:27.3,750,740,769,728,713,1,1,1
43:27.3,666,739,804,739,716,1,1,1
43:27.4,693,719,750,736,710,1,1,1
43:27.4,722,726,764,691,756,1,1,1
43:27.4,743,733,844,739,720,1,1,1
43:27.4,759,727,809,760,720,1,1,1
43:27.5,719,726,799,736,730,1,1,1
43:27.5,727,739,703,719,710,1,1,1
43:27.5,623,733,814,738,700,1,1,1
43:27.5,733,736,814,746,704,1,1,1
43:27.5,731,726,762,717,715,1,1,1
43:27.6,747,735,799,731,726,1,1,1
43:27.6,789,739,782,729,723,1,1,1
43:27.6,707,723,800,738,714,1,1,1
43:27.6,725,733,727,730,707,1,1,1
43:27.6,735,730,782,738,706,1,1,1
43:27.6,697,770,741,754,697,1,1,1
43:27.6,735,734,780,739,717,1,1,1
43:27.7,758,735,738,730,714,1,1,1
43:27.7,797,754,811,743,718,1,1,1
43:27.7,836,740,703,744,715,1,1,1
43:27.7,766,732,790,737,701,1,1,1
43:27.7,775,739,791,741,707,1,1,1
43:27.8,723,743,842,740,713,1,1,1
43:27.8,788,741,780,754,715,1,1,1
43:27.8,743,732,831,740,752,1,1,1
43:27.8,779,741,759,743,720,1,1,1
43:27.9,803,739,699,740,711,1,1,1
43:27.9,716,733,836,739,715,1,1,1
43:27.9,722,734,827,743,719,1,1,1
43:27.9,775,739,781,746,719,1,1,1
43:27.9,712,731,747,714,725,1,1,1
43:27.9,727,732,762,739,703,1,1,1
43:27.9,704,728,796,737,698,1,1,1
43:27.9,808,730,841,737,718,1,1,1
43:28.0,707,740,851,745,713,1,1,1
43:28.0,715,695,775,741,711,1,1,1
43:28.1,753,735,728,735,711,1,1,1
43:28.1,736,735,752,735,720,1,1,1
43:28.1,726,736,779,726,715,1,1,1
43:28.1,693,741,784,739,716,1,1,1
43:28.2,740,723,789,736,715,1,1,1
43:28.2,728,738,812,748,718,1,1,1
43:28.2,731,739,771,739,708,1,1,1
43:28.2,709,729,900,745,709,1,1,1
43:28.2,721,732,780,743,715,1,1,1
43:28.2,705,735,771,734,714,1,1,1
43:28.2,724,732,893,739,715,1,1,1
43:28.3,683,723,788,729,703,1,1,1
43:28.3,718,726,738,742,705,1,1,1
43:28.3,779,731,698,731,714,1,1,1
43:28.3,746,734,806,726,718,1,1,1
43:28.3,739,740,769,740,717,1,1,1
43:28.4,714,732,774,740,718,1,1,1
43:28.4,711,730,592,720,697,1,1,1
43:28.4,683,715,798,727,701,1,1,1
43:28.4,723,739,790,746,719,1,1,1
43:28.4,727,743,800,728,711,1,1,1
43:28.5,717,747,733,750,708,1,1,1
43:28.5,748,720,626,737,715,1,1,1
43:28.5,730,721,812,746,718,1,1,1
43:28.5,746,747,743,739,695,1,1,1
43:28.6,637,721,891,761,675,1,1,1
43:28.6,707,734,806,740,720,1,1,1
43:28.6,746,755,733,739,710,1,1,1
43:28.6,717,732,772,726,707,1,1,1
43:28.6,724,739,805,732,715,1,1,1
43:28.7,713,736,790,781,710,1,1,1
43:28.7,727,727,774,735,707,1,1,1
43:28.7,736,742,786,739,636,1,1,1
43:28.7,724,719,607,726,716,1,1,1
43:28.7,726,739,875,754,727,1,1,1
43:28.8,806,739,779,742,722,1,1,1
43:28.8,674,737,691,731,716,1,1,1
43:28.8,743,732,787,746,751,1,1,1
43:28.8,744,736,737,738,706,1,1,1
43:28.9,726,739,750,728,713,1,1,1
43:28.9,736,726,840,742,703,1,1,1
43:28.9,723,725,864,739,704,1,1,1
43:28.9,728,659,744,748,712,1,1,1
43:28.9,753,720,687,748,714,1,1,1
43:28.9,785,751,735,751,719,1,1,1
43:28.9,646,721,793,723,708,1,1,1
43:28.9,704,731,724,725,720,1,1,1
43:28.9,756,727,766,719,703,1,1,1
43:28.9,736,731,758,731,712,1,1,1
43:29.0,735,734,746,727,715,1,1,1
43:29.0,736,732,727,739,721,1,1,1
43:29.1,739,733,773,735,715,1,1,1
43:29.1,707,734,913,740,713,1,1,1
43:29.1,715,731,800,750,720,1,1,1
43:29.1,740,721,757,707,705,1,1,1
43:29.1,710,728,763,747,709,1,1,1
43:29.2,794,737,866,710,726,1,1,1
43:29.2,759,736,779,747,726,1,1,1
43:29.2,729,722,785,743,722,1,1,1
43:29.2,732,738,762,719,727,1,1,1
43:29.3,691,734,798,731,711,1,1,1
43:29.3,739,737,788,735,709,1,1,1
43:29.3,709,738,769,739,704,1,1,1
43:29.3,730,731,848,724,712,1,1,1
43:29.3,729,730,766,734,715,1,1,1
43:29.4,727,750,771,737,719,1,1,1
43:29.4,759,736,804,734,712,1,1,1
43:29.4,751,716,687,728,731,1,1,1
43:29.4,747,733,775,740,719,1,1,1
43:29.4,724,728,872,734,726,1,1,1
43:29.5,718,745,748,723,712,1,1,1
43:29.5,683,729,775,747,718,1,1,1
43:29.5,739,738,791,721,702,1,1,1
43:29.5,698,729,763,747,710,1,1,1
43:29.5,723,750,688,716,719,1,1,1
43:29.6,717,731,824,755,721,1,1,1
43:29.6,715,727,843,725,711,1,1,1
43:29.6,731,740,764,736,712,1,1,1
43:29.6,699,727,722,744,712,1,1,1
43:29.7,734,733,783,711,715,1,1,1
43:29.7,750,747,799,736,703,1,1,1
43:29.7,775,729,782,693,726,1,1,1
43:29.7,740,732,791,718,710,1,1,1
43:29.7,693,730,752,711,691,1,1,1
43:29.7,738,680,695,702,701,1,1,1
43:29.7,742,694,753,739,725,1,1,1
43:29.8,720,732,796,699,699,1,1,1
43:29.8,740,731,745,720,719,1,1,1
43:29.8,770,732,788,726,715,1,1,1
43:29.8,719,730,699,697,704,1,1,1
43:29.8,718,721,752,732,700,1,1,1
43:29.9,715,727,775,702,707,1,1,1
43:29.9,732,732,765,765,728,1,1,1
43:29.9,731,752,804,723,718,1,1,1
43:29.9,728,729,794,747,712,1,1,1
43:29.9,677,732,754,708,693,1,1,1
43:29.9,723,719,736,609,667,1,1,1
43:29.9,707,762,770,747,752,1,1,1
43:30.0,751,742,811,747,816,1,1,1
43:30.0,556,712,677,866,620,1,1,1
43:30.1,727,759,843,734,679,1,1,1
43:30.1,796,715,876,739,688,1,1,1
43:30.1,731,712,801,671,672,1,1,1
43:30.1,828,693,664,724,814,1,1,1
43:30.1,696,739,765,852,824,1,1,1
43:30.2,939,815,900,825,750,1,1,1
43:30.2,675,751,800,686,702,1,1,1
43:30.2,713,751,747,744,618,1,1,1
43:30.2,770,739,794,739,610,1,1,1
43:30.2,763,742,740,799,697,1,1,1
43:30.3,793,714,797,747,810,1,1,1
43:30.3,680,755,738,695,766,1,1,1
43:30.3,751,714,725,570,635,1,1,1
43:30.3,727,743,775,704,755,1,1,1
43:30.4,733,794,809,783,748,1,1,1
43:30.4,683,735,739,784,567,1,0,0
43:30.4,728,758,812,671,673,1,0,0
43:30.4,740,789,771,691,819,1,0,0
43:30.4,665,723,739,663,682,1,0,0
43:30.4,695,731,763,849,719,1,0,0
43:30.4,735,757,823,856,859,1,0,0
43:30.5,690,765,813,731,671,1,0,0
43:30.5,740,743,685,737,673,1,0,0
43:30.5,1023,737,823,753,674,1,0,0
43:30.5,742,732,759,923,859,1,0,0
43:30.5,753,753,763,820,731,1,0,0
43:30.6,715,732,779,703,755,1,0,0
43:30.6,731,723,753,789,760,1,0,0
43:30.6,696,731,784,713,685,1,0,0
43:30.6,795,743,763,739,752,1,0,0
43:30.6,758,745,799,784,684,1,0,0
43:30.7,708,730,736,858,731,1,0,0
43:30.7,764,747,715,771,698,1,0,0
43:30.7,755,745,770,749,700,1,0,0
43:30.7,839,770,774,747,783,1,0,0
43:30.8,688,731,755,664,687,1,0,0
43:30.8,667,729,782,747,683,1,0,0
43:30.8,798,766,834,666,725,1,0,0
43:30.8,643,735,728,688,692,1,0,0
43:30.8,654,718,748,738,714,1,0,0
43:30.9,729,745,770,827,795,1,0,0
43:30.9,666,747,773,670,706,1,0,0
43:30.9,731,736,751,673,726,1,0,0
43:30.9,695,729,725,804,691,1,0,0
43:30.9,676,732,753,747,707,1,0,0
43:30.9,757,774,741,718,710,1,0,0
43:30.9,799,739,718,782,801,1,0,0
43:31.0,704,755,790,740,692,1,0,0
43:31.0,766,744,798,833,764,1,0,0
43:31.1,773,693,738,787,744,1,0,0
43:31.1,726,728,731,770,704,1,0,0
43:31.1,746,713,771,918,827,1,0,0
43:31.1,770,745,771,744,688,1,0,0
43:31.1,796,731,761,803,755,1,0,0
43:31.1,748,748,764,738,824,1,0,0
43:31.1,783,751,812,673,722,1,0,0
43:31.2,791,731,754,682,652,1,0,0
43:31.2,820,754,753,723,727,1,0,0
43:31.2,683,722,768,712,707,1,0,0
43:31.2,716,754,810,738,683,1,0,0
43:31.2,680,707,754,692,689,1,0,0
43:31.3,679,747,791,801,829,1,0,0
43:31.3,722,755,766,710,705,1,0,0
43:31.3,728,751,806,671,679,1,0,0
43:31.3,759,729,741,643,648,1,0,0
43:31.3,726,735,763,691,651,1,0,0
43:31.4,688,731,746,718,764,1,0,0
43:31.4,766,723,734,747,699,1,0,0
43:31.4,680,743,750,705,703,1,0,0
43:31.4,730,707,758,795,676,1,0,0
43:31.4,690,726,771,825,804,1,0,0
43:31.5,798,784,799,687,702,1,0,0
43:31.5,811,732,780,911,871,1,0,0
43:31.5,759,725,762,779,762,1,0,0
43:31.5,724,714,763,736,839,1,0,0
43:31.6,684,723,755,726,766,1,0,0
43:31.6,662,747,779,727,688,1,0,0
43:31.6,722,741,738,576,684,1,0,0
43:31.6,799,764,794,726,683,1,0,0
43:31.6,808,714,783,671,658,1,0,0
43:31.7,782,743,807,691,725,1,0,0
43:31.7,728,755,800,711,683,1,0,0
43:31.7,756,732,757,786,799,1,0,0
43:31.7,639,719,787,716,697,1,0,0
43:31.7,716,723,773,766,597,1,0,0
43:31.8,702,727,795,777,707,1,0,0
43:31.8,749,704,730,805,678,1,0,0
43:31.8,795,729,725,723,749,1,0,0
43:31.8,781,731,836,667,669,1,0,0
43:31.9,754,718,830,786,692,1,0,0
43:31.9,763,785,828,748,751,1,0,0
43:31.9,814,892,835,806,731,1,0,0
43:31.9,720,744,715,755,835,1,0,0
43:31.9,863,739,724,734,707,1,0,0
43:31.9,858,732,838,648,710,1,0,0
43:31.9,804,714,759,755,700,1,0,0
43:31.9,776,719,627,744,687,1,0,0
43:31.9,739,739,514,688,758,1,0,0
43:31.9,711,776,752,819,680,1,0,0
43:32.0,643,734,755,721,668,1,0,0
43:32.0,670,706,840,690,667,1,0,0
43:32.1,638,693,600,735,684,1,0,0
43:32.1,727,743,756,852,835,1,0,0
43:32.1,689,752,736,895,835,1,0,0
43:32.1,717,715,779,665,629,1,0,0
43:32.1,835,764,755,818,658,1,0,0
43:32.2,719,727,735,748,712,1,0,0
43:32.2,707,818,844,860,691,1,0,0
43:32.2,793,744,742,635,571,1,0,0
43:32.2,699,722,770,730,719,1,0,0
43:32.3,761,820,815,718,775,1,0,0
43:32.3,804,742,771,916,715,1,0,0
43:32.3,763,747,787,877,708,1,0,0
43:32.3,647,714,736,818,706,1,0,0
43:32.3,816,717,752,739,714,1,0,0
43:32.4,726,735,771,682,733,1,0,0
43:32.4,698,706,774,746,763,1,0,0
43:32.4,717,717,769,763,731,1,0,0
43:32.4,689,771,772,745,717,1,0,0
43:32.4,786,754,733,852,772,1,0,0
43:32.5,820,730,765,755,719,1,0,0
43:32.5,718,775,747,626,683,1,0,0
43:32.5,753,753,801,659,752,1,0,0
43:32.5,754,791,840,749,998,1,0,0
43:32.6,793,765,800,729,698,1,0,0
43:32.6,738,703,729,826,680,1,0,0
43:32.6,728,723,741,747,707,1,0,0
43:32.6,715,700,722,846,643,1,0,0
43:32.6,690,707,775,798,757,1,0,0
43:32.6,668,701,854,754,796,1,0,0
43:32.6,759,733,741,795,709,1,0,0
43:32.7,691,723,730,695,718,1,0,0
43:32.7,805,726,817,666,729,1,0,0
43:32.7,670,783,765,738,801,1,0,0
43:32.7,856,777,816,712,737,1,0,0
43:32.7,779,734,759,724,696,1,0,0
43:32.8,803,760,750,764,715,1,0,0
43:32.8,686,723,827,911,987,1,0,0
43:32.8,676,726,738,756,700,1,0,0
43:32.8,731,734,763,766,699,1,0,0
43:32.8,749,739,715,911,757,1,0,0
43:32.9,756,738,772,802,787,1,0,0
43:32.9,767,763,746,748,734,1,0,0
43:32.9,747,726,770,811,721,1,0,0
43:32.9,703,739,752,727,739,1,0,0
43:32.9,734,732,787,753,708,1,0,0
43:32.9,742,747,799,752,780,1,0,0
43:32.9,707,731,764,676,715,1,0,0
43:33.0,739,736,751,754,735,1,0,0
43:33.0,968,791,780,1018,954,1,0,0
43:33.1,687,730,776,672,736,1,0,0
43:33.1,739,739,793,741,723,1,0,0
43:33.1,832,741,771,708,831,1,0,0
43:33.1,752,763,762,754,728,1,0,0
43:33.1,677,737,731,760,719,1,0,0
43:33.2,722,747,751,784,676,1,0,0
43:33.2,678,722,794,679,715,1,0,0
43:33.2,683,727,753,762,670,1,0,0
43:33.2,759,769,795,867,856,1,0,0
43:33.3,727,723,696,680,706,1,0,0
43:33.3,828,764,839,732,745,1,0,0
43:33.3,783,739,776,786,815,1,0,0
43:33.3,813,750,787,751,708,1,0,0
43:33.3,748,722,770,721,654,1,0,0
43:33.3,722,736,742,703,730,1,0,0
43:33.3,707,719,772,708,681,1,0,0
43:33.4,715,723,782,771,737,1,0,0
43:33.4,759,732,811,732,756,1,0,0
43:33.4,779,731,754,630,734,1,0,0
43:33.4,701,732,760,775,705,1,0,0
43:33.4,739,739,761,772,754,1,0,0
43:33.5,708,739,767,706,703,1,0,0
43:33.5,724,748,736,699,694,1,0,0
43:33.5,775,758,755,696,762,1,0,0
43:33.5,764,724,804,778,730,1,0,0
43:33.5,739,702,757,719,725,1,0,0
43:33.6,725,759,744,735,738,1,0,0
43:33.6,710,717,700,718,812,1,0,0
43:33.6,741,712,765,772,729,1,0,0
43:33.6,700,715,750,740,771,1,0,0
43:33.7,722,731,752,682,727,1,0,0
43:33.7,821,735,809,745,726,1,0,0
43:33.7,714,756,747,745,741,1,0,0
43:33.7,738,716,748,662,691,1,0,0
43:33.7,753,720,751,751,719,1,0,0
43:33.8,739,727,731,789,770,1,0,0
43:33.8,735,769,828,783,733,1,0,0
43:33.8,671,727,775,770,775,1,0,0
43:33.8,702,744,786,780,748,1,0,0
43:33.8,716,751,755,716,720,1,0,0
43:33.9,747,769,819,687,705,1,0,0
43:33.9,740,746,747,692,681,1,0,0
43:33.9,690,725,728,765,720,1,0,0
43:33.9,754,738,746,752,690,1,0,0
43:33.9,722,762,838,769,774,1,0,0
43:33.9,698,726,713,679,684,1,0,0
43:33.9,720,764,747,727,705,1,0,0
43:34.0,678,749,781,750,716,1,0,0
43:34.0,733,745,810,774,747,1,0,0
43:34.0,735,747,787,755,712,1,0,0
43:34.0,649,737,743,728,688,1,0,0
43:34.1,706,763,773,826,772,1,0,0
43:34.1,840,747,691,754,748,1,0,0
43:34.1,739,773,722,739,727,1,0,0
43:34.1,666,732,750,751,755,1,0,0
43:34.1,692,730,781,744,698,1,0,0
43:34.2,690,749,752,769,766,1,0,0
43:34.2,758,746,739,738,709,1,0,0
43:34.2,682,743,846,803,711,1,0,0
43:34.2,727,744,765,710,764,1,0,0
43:34.2,746,752,753,684,726,1,0,0
43:34.3,759,749,742,729,707,1,0,0
43:34.3,736,732,747,694,683,1,0,0
43:34.3,707,726,779,682,723,1,0,0
43:34.3,723,720,750,743,712,1,0,0
43:34.4,706,731,759,803,728,1,0,0
43:34.4,725,763,769,820,720,1,0,0
43:34.4,756,734,766,650,656,1,0,0
43:34.4,729,689,759,744,708,1,0,0
43:34.4,754,736,777,720,677,1,0,0
43:34.5,739,738,763,739,737,1,0,0
43:34.5,691,776,819,769,720,1,0,0
43:34.5,759,737,781,746,725,1,0,0
43:34.5,751,726,771,765,802,1,0,0
43:34.5,738,731,776,811,764,1,0,0
43:34.6,703,766,820,672,685,1,0,0
43:34.6,740,734,724,749,722,1,0,0
43:34.6,735,726,776,716,677,1,0,0
43:34.6,719,722,774,714,729,1,0,0
43:34.7,731,729,770,783,736,1,0,0
43:34.7,747,727,771,732,747,1,0,0
43:34.7,727,750,779,712,703,1,0,0
43:34.7,703,763,810,772,657,1,0,0
43:34.7,735,753,827,739,719,1,0,0
43:34.7,731,719,751,750,735,1,0,0
43:34.7,697,725,771,748,706,1,0,0
43:34.8,727,737,723,778,761,1,0,0
43:34.8,717,755,760,772,758,1,0,0
43:34.8,690,763,769,749,723,1,0,0
43:34.8,745,717,827,664,713,1,0,0
43:34.8,736,733,747,728,713,1,0,0
43:34.9,759,739,775,744,725,1,0,0
43:34.9,667,730,762,714,701,1,0,0
43:34.9,704,730,759,699,727,1,0,0
43:34.9,734,726,794,734,783,1,0,0
43:34.9,735,733,737,641,677,1,0,0
43:34.9,726,738,748,659,698,1,0,0
43:34.9,754,718,750,717,687,1,0,0
43:35.0,694,740,755,736,693,1,0,0
43:35.0,730,744,761,735,643,1,0,0
43:35.1,737,736,782,752,683,1,0,0
43:35.1,757,728,762,691,715,1,0,0
43:35.1,854,735,822,900,718,1,0,0
43:35.1,749,719,766,750,702,1,0,0
43:35.1,741,748,765,731,720,1,0,0
43:35.2,775,739,747,798,767,1,0,0
43:35.2,741,752,755,747,715,1,0,0
43:35.2,762,736,759,741,715,1,0,0
43:35.2,692,746,763,781,683,1,0,0
43:35.2,691,752,777,668,710,1,0,0
43:35.3,713,722,734,737,714,1,0,0
43:35.3,756,755,826,833,754,1,0,0
43:35.3,727,707,763,779,771,1,0,0
43:35.3,684,738,774,793,723,1,0,0
43:35.4,707,731,724,746,691,1,0,0
43:35.4,723,742,763,763,722,1,0,0
43:35.4,692,723,697,694,663,1,0,0
43:35.4,701,733,754,772,723,1,0,0
43:35.4,726,739,759,757,708,1,0,0
43:35.4,744,789,748,659,679,1,0,0
43:35.4,734,736,771,754,708,1,0,0
43:35.5,709,739,774,683,682,1,0,0
43:35.5,710,756,748,739,700,1,0,0
43:35.5,618,735,771,735,691,1,0,0
43:35.5,695,735,702,759,749,1,0,0
43:35.5,808,753,738,710,691,1,0,0
43:35.6,898,750,808,819,887,1,0,0
43:35.6,742,742,794,739,694,1,0,0
43:35.6,685,703,733,757,694,1,0,0
43:35.6,710,747,737,718,686,1,0,0
43:35.6,703,739,780,715,691,1,0,0
43:35.7,702,735,856,771,764,1,0,0
43:35.7,755,747,771,731,715,1,0,0
43:35.7,802,724,788,735,709,1,0,0
43:35.7,738,746,743,775,700,1,0,0
43:35.8,743,731,715,726,692,1,0,0
43:35.8,854,756,757,773,753,1,0,0
43:35.8,708,713,715,866,744,1,0,0
43:35.8,694,700,753,739,723,1,0,0
43:35.8,792,726,778,659,673,1,0,0
43:35.9,598,723,787,785,711,1,0,0
43:35.9,804,742,776,783,789,1,0,0
43:35.9,743,731,761,699,705,1,0,0
43:35.9,692,736,794,689,680,1,0,0
43:35.9,716,753,869,751,702,1,0,0
43:35.9,727,752,787,743,719,1,0,0
43:35.9,725,731,765,790,809,1,0,0
43:36.0,763,768,820,663,726,1,0,0
43:36.0,747,711,749,865,770,1,0,0
43:36.1,709,738,771,738,691,1,0,0
43:36.1,723,739,794,727,694,1,0,0
43:36.1,716,807,805,707,724,1,0,0
43:36.1,697,739,755,755,723,1,0,0
43:36.1,729,739,776,763,724,1,0,0
43:36.1,708,715,699,732,729,1,0,0
43:36.1,724,690,759,694,715,1,0,0
43:36.2,771,723,823,774,728,1,0,0
43:36.2,747,763,787,757,744,1,0,0
43:36.2,747,727,745,731,742,1,0,0
43:36.2,727,738,784,551,684,1,0,0
43:36.2,713,714,657,702,719,1,0,0
43:36.3,814,721,763,731,723,1,0,0
43:36.3,757,742,788,817,717,1,0,0
43:36.3,723,738,742,701,746,1,0,0
43:36.3,639,726,771,671,669,1,0,0
43:36.3,809,752,783,699,714,1,0,0
43:36.4,783,740,770,800,769,1,0,0
43:36.4,732,734,811,714,735,1,0,0
43:36.4,697,715,766,746,724,1,0,0
43:36.4,835,741,763,725,712,1,0,0
43:36.5,703,732,748,863,694,1,0,0
43:36.5,709,750,858,781,737,1,0,0
43:36.5,710,741,799,731,730,1,0,0
43:36.5,727,749,695,616,718,1,0,0
43:36.5,657,749,746,709,718,1,0,0
43:36.6,692,722,683,627,675,1,0,0
43:36.6,748,717,767,727,725,1,0,0
43:36.6,698,741,820,762,740,1,0,0
43:36.6,832,739,744,736,687,1,0,0
43:36.6,774,755,788,734,713,1,0,0
43:36.7,771,727,708,706,702,1,0,0
43:36.7,716,732,777,733,706,1,0,0
43:36.7,724,755,739,774,777,1,0,0
43:36.7,731,735,755,750,708,1,0,0
43:36.8,778,731,735,751,700,1,0,0
43:36.8,728,724,746,723,712,1,0,0
43:36.8,735,732,798,723,777,1,0,0
43:36.8,730,750,782,702,707,1,0,0
43:36.8,723,751,788,699,723,1,0,0
43:36.8,721,725,762,722,684,1,0,0
43:36.8,739,758,697,666,727,1,0,0
43:36.9,747,742,734,679,715,1,0,0
43:36.9,742,731,753,682,685,1,0,0
43:36.9,743,731,748,712,722,1,0,0
43:36.9,731,736,755,755,707,1,0,0
43:36.9,722,747,771,747,751,1,0,0
43:36.9,655,731,757,699,694,1,0,0
43:36.9,754,762,775,751,709,1,0,0
43:37.0,824,745,763,650,668,1,0,0
43:37.0,779,750,773,703,714,1,0,0
43:37.0,710,738,763,714,692,1,0,0
43:37.1,741,730,739,712,720,1,0,0
43:37.1,693,716,760,801,699,1,0,0
43:37.1,778,731,758,739,734,1,0,0
43:37.1,722,756,791,744,727,1,0,0
43:37.1,715,751,788,721,731,1,0,0
43:37.2,772,733,747,722,700,1,0,0
43:37.2,713,741,787,765,719,1,0,0
43:37.2,745,748,787,811,754,1,0,0
43:37.2,770,727,754,771,728,1,0,0
43:37.3,790,741,769,745,691,1,0,0
43:37.3,734,741,796,763,739,1,0,0
43:37.3,824,751,779,707,755,1,0,0
43:37.3,793,741,753,720,714,1,0,0
43:37.3,712,740,779,726,718,1,0,0
43:37.4,737,734,784,732,697,1,0,0
43:37.4,740,739,753,728,722,1,0,0
43:37.4,683,741,776,786,786,1,0,0
43:37.4,774,731,783,731,705,1,0,0
43:37.4,786,747,737,734,708,1,0,0
43:37.5,796,758,806,788,774,1,0,0
43:37.5,744,751,757,669,697,1,0,0
43:37.5,807,753,779,660,676,1,0,0
43:37.5,739,741,752,679,685,1,0,0
43:37.6,789,756,782,739,751,1,0,0
43:37.6,744,729,732,722,722,1,0,0
43:37.6,756,731,772,702,727,1,0,0
43:37.6,803,748,741,756,741,1,0,0
43:37.6,755,755,783,771,734,1,0,0
43:37.6,828,753,732,795,709,1,0,0
43:37.6,694,739,745,723,726,1,0,0
43:37.7,835,776,803,929,916,1,0,0
43:37.7,718,732,777,739,721,1,0,0
43:37.7,748,744,769,737,752,1,0,0
43:37.7,791,743,776,695,707,1,0,0
43:37.7,717,731,718,728,711,1,0,0
43:37.8,732,732,752,719,710,1,0,0
43:37.8,703,751,766,731,756,1,0,0
43:37.8,764,732,763,728,716,1,0,0
43:37.8,746,743,732,742,722,1,0,0
43:37.8,657,742,771,753,733,1,0,0
43:37.9,717,733,777,723,712,1,0,0
43:37.9,748,745,772,820,710,1,0,0
43:37.9,693,706,717,659,761,1,0,0
43:37.9,748,733,751,726,714,1,0,0
43:37.9,750,733,752,722,726,1,0,0
43:37.9,691,735,780,723,672,1,0,0
43:37.9,758,754,764,691,718,1,0,0
43:38.0,771,762,735,737,715,1,0,0
43:38.0,741,741,789,756,724,1,0,0
43:38.1,727,752,764,751,723,1,0,0
43:38.1,735,751,769,735,725,1,0,0
43:38.1,731,740,771,743,718,1,0,0
43:38.1,725,726,812,819,736,1,0,0
43:38.1,718,744,756,731,708,1,0,0
43:38.2,726,733,800,748,687,1,0,0
43:38.2,770,747,796,770,723,1,0,0
43:38.2,675,748,789,763,731,1,0,0
43:38.2,744,738,735,730,715,1,0,0
43:38.3,748,759,797,734,708,1,0,0
43:38.3,695,741,738,775,736,1,0,0
43:38.3,731,735,735,697,708,1,0,0
43:38.3,786,765,756,755,710,1,0,0
43:38.3,734,747,750,674,675,1,0,0
43:38.3,777,767,745,738,729,1,0,0
43:38.3,834,770,723,766,687,1,0,0
43:38.4,770,750,739,719,715,1,0,0
43:38.4,763,741,758,754,709,1,0,0
43:38.4,714,739,748,769,731,1,0,0
43:38.4,689,739,784,759,693,1,0,0
43:38.4,742,732,803,816,711,1,0,0
43:38.5,724,771,779,779,718,1,0,0
43:38.5,775,720,718,705,698,1,0,0
43:38.5,755,732,757,752,702,1,0,0
43:38.5,731,738,716,742,747,1,0,0
43:38.5,802,754,771,631,731,1,0,0
43:38.6,732,737,755,749,708,1,0,0
43:38.6,741,792,705,606,691,1,0,0
43:38.6,759,764,782,723,712,1,0,0
43:38.6,739,735,744,719,719,1,0,0
43:38.7,728,771,752,714,704,1,0,0
43:38.7,771,772,812,786,695,1,0,0
43:38.7,728,738,770,714,710,1,0,0
43:38.7,743,752,747,742,697,1,0,0
43:38.7,741,773,770,701,714,1,0,0
43:38.8,703,737,814,723,717,1,0,0
43:38.8,705,731,771,760,735,1,0,0
43:38.8,753,749,763,713,727,1,0,0
43:38.8,748,755,758,692,686,1,0,0
43:38.8,859,740,731,670,712,1,0,0
43:38.9,716,748,679,708,734,1,0,0
43:38.9,744,735,753,720,729,1,0,0
43:38.9,771,783,766,751,772,1,0,0
43:38.9,730,744,771,804,719,1,0,0
43:38.9,749,751,783,770,692,1,0,0
43:38.9,738,770,778,754,714,1,0,0
43:38.9,710,731,771,716,743,1,0,0
43:38.9,695,742,763,720,708,1,0,0
43:38.9,738,744,787,709,715,1,0,0
43:39.0,779,760,776,762,716,1,0,0
43:39.0,713,732,744,716,723,1,0,0
43:39.1,746,732,742,731,715,1,0,0
43:39.1,735,740,794,714,746,1,0,0
43:39.1,779,782,731,755,778,1,0,0
43:39.1,715,699,719,754,707,1,0,0
43:39.1,716,730,732,691,671,1,0,0
43:39.2,751,751,753,705,730,1,0,0
43:39.2,743,730,751,719,694,1,0,0
43:39.2,755,745,755,756,737,1,0,0
43:39.2,771,755,704,779,1023,1,0,0
43:39.2,768,759,766,717,712,1,0,0
43:39.3,745,739,752,761,708,1,0,0
43:39.3,722,744,752,718,704,1,0,0
43:39.3,646,759,783,754,702,1,0,0
43:39.3,739,759,800,736,711,1,0,0
43:39.4,751,746,764,771,785,1,0,0
43:39.4,783,761,783,695,725,1,0,0
43:39.4,731,737,742,712,700,1,0,0
43:39.4,779,737,740,730,752,1,0,0
43:39.4,713,746,763,676,707,1,0,0
43:39.5,707,759,713,646,731,1,0,0
43:39.5,804,746,768,759,699,1,0,0
43:39.5,734,747,756,750,726,1,0,0
43:39.5,758,751,764,748,712,1,0,0
43:39.5,764,744,743,719,691,1,0,0
43:39.6,743,755,767,710,706,1,0,0
43:39.6,672,723,776,552,711,1,0,0
43:39.6,708,743,781,753,720,1,0,0
43:39.6,807,740,751,708,715,1,0,0
43:39.7,725,745,762,726,740,1,0,0
43:39.7,764,744,747,729,707,1,0,0
43:39.7,726,742,731,688,690,1,0,0
43:39.7,701,743,716,664,723,1,0,0
43:39.7,727,751,727,760,713,1,0,0
43:39.7,782,754,780,757,725,1,0,0
43:39.7,744,734,740,685,769,1,0,0
43:39.8,731,739,760,770,727,1,0,0
43:39.8,705,725,731,694,697,1,0,0
43:39.8,742,739,806,756,719,1,0,0
43:39.8,716,731,739,691,819,1,0,0
43:39.8,787,735,779,762,733,1,0,0
43:39.9,776,755,794,714,728,1,0,0
43:39.9,786,760,739,766,726,1,0,0
43:39.9,710,750,726,739,712,1,0,0
43:39.9,755,761,763,734,712,1,0,0
43:39.9,736,769,742,731,726,1,0,0
43:39.9,745,733,770,746,696,1,0,0
43:39.9,757,730,755,720,728,1,0,0
43:40.0,752,748,758,724,703,1,0,0
43:40.0,799,748,747,678,716,1,0,0
43:40.1,731,747,782,718,719,1,0,0
43:40.1,749,735,731,763,728,1,0,0
43:40.1,800,763,753,754,749,1,0,0
43:40.1,789,738,750,628,744,1,0,0
43:40.1,715,755,694,733,693,1,0,0
43:40.2,740,751,748,715,731,1,0,0
43:40.2,714,713,740,670,666,1,0,0
43:40.2,715,749,771,778,703,1,0,0
43:40.2,814,738,737,712,738,1,0,0
43:40.2,757,741,726,743,743,1,0,0
43:40.3,735,743,727,718,727,1,0,0
43:40.3,745,790,779,703,713,1,0,0
43:40.3,734,730,747,690,687,1,0,0
43:40.3,796,732,720,699,740,1,0,0
43:40.4,731,726,711,735,759,1,0,0
43:40.4,746,765,778,747,726,1,0,0
43:40.4,788,749,787,703,731,1,0,0
43:40.4,764,725,733,708,718,1,0,0
43:40.4,802,751,747,764,722,1,0,0
43:40.4,713,747,774,736,772,1,0,0
43:40.4,714,750,761,721,733,1,0,0
43:40.5,684,728,727,520,674,1,0,0
43:40.5,731,750,769,732,721,1,0,0
43:40.5,734,742,756,700,814,1,0,0
43:40.5,779,758,755,779,912,1,0,0
43:40.5,763,784,744,775,717,1,0,0
43:40.6,710,781,764,719,679,1,0,0
43:40.6,734,739,739,660,714,1,0,0
43:40.6,765,746,759,755,828,1,0,0
43:40.6,789,739,784,748,755,1,0,0
43:40.6,759,740,755,684,754,1,0,0
43:40.7,772,732,751,755,734,1,0,0
43:40.7,739,752,724,731,769,1,0,0
43:40.7,704,741,776,706,736,1,0,0
43:40.7,860,744,737,761,781,1,0,0
43:40.8,712,751,773,689,746,1,0,0
43:40.8,760,738,752,695,796,1,0,0
43:40.8,758,746,751,758,688,1,0,0
43:40.8,787,748,772,709,709,1,0,0
43:40.8,758,769,749,706,705,1,0,0
43:40.9,731,753,749,663,697,1,0,0
43:40.9,703,755,752,733,732,1,0,0
43:40.9,758,744,748,772,719,1,0,0
43:40.9,735,752,755,731,713,1,0,0
43:40.9,781,744,763,731,738,1,0,0
43:40.9,850,735,750,683,747,1,0,0
43:40.9,739,757,724,685,712,1,0,0
43:41.0,729,754,727,775,757,1,0,0
43:41.0,836,751,739,755,787,1,0,0
43:41.0,784,734,745,727,726,1,0,0
43:41.1,772,736,759,761,706,1,0,0
43:41.1,751,755,755,729,782,1,0,0
43:41.1,727,736,762,748,713,1,0,0
43:41.1,789,741,743,763,725,1,0,0
43:41.2,728,740,749,726,744,1,0,0
43:41.2,747,724,704,680,686,1,0,0
43:41.2,749,748,778,724,742,1,0,0
43:41.2,744,740,667,780,735,1,0,0
43:41.2,763,733,723,708,747,1,0,0
43:41.2,777,754,767,757,775,1,0,0
43:41.2,756,723,734,697,739,1,0,0
43:41.3,751,743,704,579,715,1,0,0
43:41.3,724,737,724,688,686,1,0,0
43:41.3,770,763,787,710,724,1,0,0
43:41.3,763,743,711,730,687,1,0,0
43:41.3,763,755,827,739,763,1,0,0
43:41.4,589,750,795,755,689,1,0,0
43:41.4,786,734,796,718,715,1,0,0
43:41.4,727,750,792,707,697,1,0,0
43:41.4,745,748,809,739,614,1,0,0
43:41.4,696,731,460,695,666,1,0,0
43:41.5,740,758,1023,739,720,1,0,0
43:41.5,849,757,1023,707,752,1,0,0
43:41.5,518,707,1003,658,705,1,0,0
43:41.5,839,782,255,770,727,1,0,0
43:41.6,743,746,724,739,758,1,0,0
43:41.6,713,738,428,709,691,1,0,0
43:41.6,1023,747,803,736,727,1,0,0
43:41.6,723,731,1023,704,729,1,0,0
43:41.6,730,734,587,713,723,1,0,0
43:41.7,741,767,701,739,803,1,0,0
43:41.7,792,739,803,766,648,1,0,0
43:41.7,743,752,595,727,732,1,0,0
43:41.7,759,757,880,688,756,1,0,0
43:41.7,715,705,687,724,735,0,0,0
43:41.8,748,713,793,705,740,0,0,0
43:41.8,731,745,685,707,744,0,0,0
43:41.8,762,713,624,723,798,0,0,0
43:41.8,801,731,1012,739,735,0,0,0
43:41.9,774,735,715,696,760,0,1,0
43:41.9,808,731,759,713,723,0,1,0
43:41.9,732,742,672,725,741,0,1,0
43:41.9,730,800,1023,754,728,0,1,0
43:41.9,703,735,770,724,737,0,1,0
43:41.9,720,750,567,760,610,0,1,0
43:41.9,734,741,662,720,724,0,1,0
43:41.9,771,752,694,726,723,0,1,0
43:41.9,792,748,745,719,693,0,1,0
43:41.9,797,744,803,719,637,0,1,0
43:42.0,674,751,851,739,777,0,1,0
43:42.0,722,748,1023,780,754,0,1,0
43:42.1,766,751,735,735,747,0,1,0
43:42.1,729,749,684,734,747,0,1,0
43:42.1,716,705,991,694,697,0,1,0
43:42.1,740,738,663,711,726,0,1,0
43:42.1,746,771,763,711,781,0,1,0
43:42.2,788,743,653,707,779,0,1,0
43:42.2,808,755,587,766,778,0,1,0
43:42.2,686,742,643,715,807,0,1,0
43:42.2,727,744,619,760,728,0,1,0
43:42.3,763,743,715,707,716,0,1,0
43:42.3,746,735,751,747,753,0,1,0
43:42.3,750,731,932,740,707,0,1,0
43:42.3,754,748,726,776,758,0,1,0
43:42.3,664,746,765,725,725,0,1,0
43:42.4,739,737,720,718,739,0,1,0
43:42.4,731,752,635,733,717,0,1,0
43:42.4,784,747,700,722,738,0,1,0
43:42.4,826,754,721,739,747,0,1,0
43:42.4,704,709,1023,705,734,0,1,0
43:42.5,728,766,725,720,689,0,1,0
43:42.5,740,746,701,750,750,0,1,0
43:42.5,744,727,687,724,687,0,1,0
43:42.5,742,731,1023,716,731,0,1,0
43:42.6,839,759,679,723,803,0,1,0
43:42.6,735,723,671,745,659,0,1,0
43:42.6,726,731,787,747,771,0,1,0
43:42.6,764,734,697,713,716,0,1,0
43:42.6,735,767,662,762,763,0,1,0
43:42.6,675,741,779,699,727,0,1,0
43:42.6,735,731,880,709,665,0,1,0
43:42.7,726,736,806,732,711,0,1,0
43:42.7,746,728,900,727,728,0,1,0
43:42.7,744,738,706,744,779,0,1,0
43:42.7,670,735,630,700,693,0,1,0
43:42.7,783,755,752,728,787,0,1,0
43:42.8,750,771,779,719,727,0,1,0
43:42.8,709,750,741,711,683,0,1,0
43:42.8,793,736,835,706,692,0,1,0
43:42.8,781,753,742,719,728,0,1,0
43:42.8,720,740,723,755,718,0,1,0
43:42.9,765,743,705,723,700,0,1,0
43:42.9,781,733,881,714,808,0,1,0
43:42.9,731,753,765,695,681,0,1,0
43:42.9,743,719,819,730,724,0,1,0
43:42.9,756,756,707,723,792,0,1,0
43:42.9,769,742,733,700,721,0,1,0
43:42.9,743,725,803,695,752,0,1,0
43:43.0,769,731,697,717,758,0,1,0
43:43.0,748,757,716,723,757,0,1,0
43:43.1,839,751,832,735,739,0,1,0
43:43.1,701,732,707,704,720,0,1,0
43:43.1,764,745,803,717,888,0,1,0
43:43.1,772,751,821,783,749,0,1,0
43:43.1,774,770,732,716,781,0,1,0
43:43.2,818,739,975,691,822,0,1,0
43:43.2,743,723,1023,723,734,0,1,0
43:43.2,740,745,796,727,739,0,1,0
43:43.2,838,747,618,719,805,0,1,0
43:43.3,750,751,778,723,862,0,1,0
43:43.3,819,753,689,731,810,0,1,0
43:43.3,819,740,698,705,735,0,1,0
43:43.3,749,746,781,705,735,0,1,0
43:43.3,835,751,1023,715,770,0,1,0
43:43.3,817,738,638,716,687,0,1,0
43:43.3,755,735,827,746,735,0,1,0
43:43.4,731,746,763,734,742,0,1,0
43:43.4,844,742,836,713,783,0,1,0
43:43.4,751,776,605,731,724,0,1,0
43:43.4,742,715,677,699,711,0,1,0
43:43.4,770,775,802,747,827,0,1,0
43:43.5,742,748,750,706,716,0,1,0
43:43.5,683,734,915,727,771,0,1,0
43:43.5,780,752,855,723,729,0,1,0
43:43.5,755,761,736,749,750,0,1,0
43:43.5,703,723,803,699,759,0,1,0
43:43.6,712,747,754,709,738,0,1,0
43:43.6,750,740,656,718,742,0,1,0
43:43.6,774,743,684,755,797,0,1,0
43:43.6,787,742,744,725,743,0,1,0
43:43.7,749,748,947,709,691,0,1,0
43:43.7,687,744,850,728,739,0,1,0
43:43.7,779,742,811,715,847,0,1,0
43:43.7,703,737,1023,705,734,0,1,0
43:43.7,828,739,846,730,743,0,1,0
43:43.8,683,736,695,719,699,0,1,0
43:43.8,779,743,700,725,719,0,1,0
43:43.8,763,740,624,737,689,0,1,0
43:43.8,801,737,670,728,755,0,1,0
43:43.8,700,742,762,742,741,0,1,0
43:43.9,758,766,593,728,750,0,1,0
43:43.9,739,743,749,721,717,0,1,0
43:43.9,691,751,819,710,742,0,1,0
43:43.9,761,767,743,680,739,0,1,0
43:43.9,744,779,657,723,775,0,1,0
43:43.9,752,737,583,746,870,0,1,0
43:43.9,733,731,742,734,716,0,1,0
43:44.0,707,751,714,694,759,0,1,0
43:44.0,721,734,709,724,728,0,1,0
43:44.0,743,735,743,759,763,0,1,0
43:44.0,736,752,858,746,751,0,1,0
43:44.1,779,752,715,727,714,0,1,0
43:44.1,797,746,699,690,858,0,1,0
43:44.1,850,741,619,717,788,0,1,0
43:44.1,897,740,956,732,771,0,1,0
43:44.1,761,735,760,726,715,0,1,0
43:44.2,788,723,738,735,718,0,1,0
43:44.2,753,748,657,673,747,0,1,0
43:44.2,770,746,711,748,757,0,1,0
43:44.2,744,765,726,707,732,0,1,0
43:44.2,865,775,683,706,851,0,1,0
43:44.3,708,742,681,733,739,0,1,0
43:44.3,763,752,792,740,735,0,1,0
43:44.3,742,745,635,726,713,0,1,0
43:44.3,755,739,707,717,735,0,1,0
43:44.4,714,759,742,741,706,0,1,0
43:44.4,785,752,615,715,784,0,1,0
43:44.4,724,747,807,721,692,0,1,0
43:44.4,698,754,732,726,727,0,1,0
43:44.4,691,739,736,711,763,0,1,0
43:44.5,740,760,771,740,739,0,1,0
43:44.5,783,721,660,711,724,0,1,0
43:44.5,726,740,627,689,555,0,1,0
43:44.5,771,741,705,704,695,0,1,0
43:44.5,811,739,668,749,648,0,1,0
43:44.6,759,739,854,749,750,0,1,0
43:44.6,756,758,727,745,779,0,1,0
43:44.6,831,747,819,723,742,0,1,0
43:44.6,795,731,783,724,763,0,1,0
43:44.7,738,771,688,736,746,0,1,0
43:44.7,771,736,561,721,746,0,1,0
43:44.7,756,746,795,733,752,0,1,0
43:44.7,746,744,733,634,752,0,1,0
43:44.7,719,743,717,739,762,0,1,0
43:44.7,721,746,665,736,743,0,1,0
43:44.7,727,756,698,735,752,0,1,0
43:44.8,787,737,810,731,736,0,1,0
43:44.8,740,748,726,724,741,0,1,0
43:44.8,844,739,827,748,878,0,1,0
43:44.8,805,758,724,752,783,0,1,0
43:44.8,771,730,652,691,735,0,1,0
43:44.9,747,749,686,676,716,0,1,0
43:44.9,739,747,719,691,667,0,1,0
43:44.9,748,731,606,630,699,0,1,0
43:44.9,763,757,700,729,847,0,1,0
43:44.9,755,745,723,723,747,0,1,0
43:44.9,727,744,600,714,726,0,1,0
43:44.9,751,730,753,726,746,0,1,0
43:45.0,765,745,696,747,724,0,1,0
43:45.0,743,732,726,731,747,0,1,0
43:45.1,724,773,774,721,704,0,1,0
43:45.1,709,751,776,739,712,0,1,0
43:45.1,732,734,836,683,731,0,1,0
43:45.1,756,732,720,727,742,0,1,0
43:45.1,800,764,719,714,793,0,1,0
43:45.2,718,732,717,735,751,0,1,0
43:45.2,739,755,680,746,838,0,1,0
43:45.2,766,733,703,719,754,0,1,0
43:45.2,854,760,663,738,820,0,1,0
43:45.2,752,743,803,716,755,0,1,0
43:45.3,800,747,927,618,777,0,1,0
43:45.3,737,731,696,720,750,0,1,0
43:45.3,796,739,795,723,762,0,1,0
43:45.3,749,740,752,715,721,0,1,0
43:45.4,751,742,565,703,729,0,1,0
43:45.4,779,734,737,738,698,0,1,0
43:45.4,728,745,790,739,696,0,1,0
43:45.4,741,732,723,686,709,0,1,0
43:45.4,751,752,685,751,742,0,1,0
43:45.4,707,762,608,780,747,0,1,0
43:45.4,754,752,687,715,653,0,1,0
43:45.5,752,739,680,715,767,0,1,0
43:45.5,748,731,667,730,715,0,1,0
43:45.5,787,731,674,728,779,0,1,0
43:45.5,761,731,652,698,706,0,1,0
43:45.5,867,731,679,729,776,0,1,0
43:45.6,759,714,613,707,718,0,1,0
43:45.6,765,779,746,746,937,0,1,0
43:45.6,789,737,687,723,745,0,1,0
43:45.6,765,734,718,726,785,0,1,0
43:45.6,785,747,689,735,667,0,1,0
43:45.7,750,746,887,728,738,0,1,0
43:45.7,763,749,777,736,733,0,1,0
43:45.7,764,747,783,752,746,0,1,0
43:45.7,760,731,1023,696,706,0,1,0
43:45.8,807,756,652,730,728,0,1,0
43:45.8,809,732,1023,736,751,0,1,0
43:45.8,756,738,704,724,739,0,1,0
43:45.8,779,754,705,741,749,0,1,0
43:45.8,758,740,713,716,719,0,1,0
43:45.9,741,732,791,710,737,0,1,0
43:45.9,739,744,765,731,747,0,1,0
43:45.9,751,747,721,721,733,0,1,0
43:45.9,739,751,623,713,711,0,1,0
43:45.9,782,728,610,723,713,0,1,0
43:45.9,762,726,706,703,722,0,1,0
43:45.9,771,758,758,729,748,0,1,0
43:46.0,749,736,1013,729,744,0,1,0
43:46.0,782,740,773,745,885,0,1,0
43:46.1,841,740,580,746,795,0,1,0
43:46.1,766,759,1023,736,694,0,1,0
43:46.1,751,742,817,735,718,0,1,0
43:46.1,739,722,871,703,743,0,1,0
43:46.1,727,731,707,728,747,0,1,0
43:46.1,724,732,674,732,793,0,1,0
43:46.1,767,733,784,729,697,0,1,0
43:46.2,749,732,653,717,750,0,1,0
43:46.2,748,752,599,723,726,0,1,0
43:46.2,744,731,1023,729,624,0,1,0
43:46.2,723,748,778,736,746,0,1,0
43:46.2,776,744,738,718,762,0,1,0
43:46.3,751,766,821,731,769,0,1,0
43:46.3,720,747,739,727,763,0,1,0
43:46.3,721,755,613,720,763,0,1,0
43:46.3,839,762,847,753,717,0,1,0
43:46.3,746,749,739,729,732,0,1,0
43:46.4,754,724,1021,721,728,0,1,0
43:46.4,772,738,826,731,747,0,1,0
43:46.4,772,759,674,723,790,0,1,0
43:46.4,784,723,520,715,740,0,1,0
43:46.5,763,711,633,701,750,0,1,0
43:46.5,785,734,859,712,702,0,1,0
43:46.5,770,747,743,727,785,0,1,0
43:46.5,731,732,723,710,720,0,1,0
43:46.5,754,786,650,727,762,0,1,0
43:46.6,793,757,722,742,846,0,1,0
43:46.6,846,738,678,683,819,0,1,0
43:46.6,710,717,647,717,730,0,1,0
43:46.6,761,725,686,707,723,0,1,0
43:46.6,764,763,606,751,722,0,1,0
43:46.7,782,723,766,736,843,0,1,0
43:46.7,731,720,989,702,735,0,1,0
43:46.7,766,763,749,731,763,0,1,0
43:46.7,777,770,721,719,770,0,1,0
43:46.8,755,730,872,738,773,0,1,0
43:46.8,787,747,739,732,763,0,1,0
43:46.8,755,728,651,719,754,0,1,0
43:46.8,740,734,815,734,786,0,1,0
43:46.8,694,741,802,742,858,0,1,0
43:46.9,717,736,668,706,755,0,1,0
43:46.9,796,727,814,729,811,0,1,0
43:46.9,806,750,934,734,772,0,1,0
43:46.9,752,736,990,722,714,0,1,0
43:46.9,750,741,723,739,686,0,1,0
43:46.9,754,739,578,723,827,0,1,0
43:46.9,761,750,623,731,770,0,1,0
43:46.9,714,728,675,715,732,0,1,0
43:46.9,765,757,648,736,805,0,1,0
43:47.0,766,750,698,745,715,0,1,0
43:47.0,799,740,873,735,777,0,1,0
43:47.0,745,764,927,712,766,0,1,0
43:47.1,769,740,604,701,779,0,1,0
43:47.1,769,731,749,714,712,0,1,0
43:47.1,769,721,1012,711,787,0,1,0
43:47.1,734,731,736,733,718,0,1,0
43:47.1,734,751,736,746,740,0,1,0
43:47.2,779,771,489,737,747,0,1,0
43:47.2,791,730,790,715,794,0,1,0
43:47.2,742,724,618,732,737,0,1,0
43:47.2,744,734,658,721,739,0,1,0
43:47.3,761,727,864,723,857,0,1,0
43:47.3,747,731,923,719,755,0,1,0
43:47.3,777,742,667,716,735,0,1,0
43:47.3,757,747,771,743,735,0,1,0
43:47.3,756,738,795,742,766,0,1,0
43:47.4,734,722,830,714,747,0,1,0
43:47.4,794,754,813,719,752,0,1,0
43:47.4,771,746,635,723,739,0,1,0
43:47.4,774,745,652,715,761,0,1,0
43:47.4,757,751,649,735,748,0,1,0
43:47.5,782,740,690,716,769,0,1,0
43:47.5,777,751,706,734,732,0,1,0
43:47.5,747,727,683,733,748,0,1,0
43:47.5,762,748,670,727,784,0,1,0
43:47.6,747,745,613,734,787,0,1,0
43:47.6,783,747,761,737,756,0,1,0
43:47.6,790,783,616,738,787,0,1,0
43:47.6,756,752,647,680,765,0,1,0
43:47.6,788,736,701,735,747,0,1,0
43:47.6,754,744,691,736,755,0,1,0
43:47.6,804,756,812,742,805,0,1,0
43:47.7,755,721,728,721,768,0,1,0
43:47.7,770,748,670,715,744,0,1,0
43:47.7,781,736,698,720,746,0,1,0
43:47.7,733,755,703,725,743,0,1,0
43:47.7,722,755,655,724,731,0,1,0
43:47.8,756,739,735,741,715,0,1,0
43:47.8,688,727,730,746,782,0,1,0
43:47.8,745,735,631,718,795,0,1,0
43:47.8,774,731,678,720,745,0,1,0
43:47.8,729,739,657,729,771,0,1,0
43:47.9,759,744,705,743,819,0,1,0
43:47.9,771,747,780,753,755,0,1,0
43:47.9,770,737,746,715,658,0,1,0
43:47.9,759,726,722,726,722,0,1,0
43:47.9,759,736,880,750,755,0,1,0
43:47.9,741,747,777,734,838,0,1,0
43:47.9,734,732,757,731,779,0,1,0
43:48.0,691,745,623,735,764,0,1,0
43:48.0,775,734,818,745,686,0,1,0
43:48.1,764,737,691,727,765,0,1,0
43:48.1,748,754,698,713,751,0,1,0
43:48.1,712,723,743,708,688,0,1,0
43:48.1,787,744,652,732,766,0,1,0
43:48.1,782,764,720,733,712,0,1,0
43:48.2,745,729,659,732,731,0,1,0
43:48.2,826,742,611,759,761,0,1,0
43:48.2,732,731,665,720,746,0,1,0
43:48.2,717,742,690,700,715,0,1,0
43:48.3,727,735,796,754,780,0,1,0
43:48.3,766,747,755,750,771,0,1,0
43:48.3,769,721,583,746,720,0,1,0
43:48.3,710,735,716,734,655,0,1,0
43:48.3,755,752,723,731,741,0,1,0
43:48.4,796,746,656,725,820,0,1,0
43:48.4,744,728,764,731,683,0,1,0
43:48.4,777,747,688,726,826,0,1,0
43:48.4,794,742,878,775,730,0,1,0
43:48.4,758,747,788,714,745,0,1,0
43:48.4,752,749,678,731,741,0,1,0
43:48.4,741,751,713,708,744,0,1,0
43:48.5,754,730,900,729,764,0,1,0
43:48.5,787,744,675,719,774,0,1,0
43:48.5,744,758,699,702,669,0,1,0
43:48.5,713,727,717,706,658,0,1,0
43:48.5,788,755,719,714,723,0,1,0
43:48.6,783,760,686,752,787,0,1,0
43:48.6,758,742,840,736,678,0,1,0
43:48.6,771,751,714,740,768,0,1,0
43:48.6,776,744,764,735,746,0,1,0
43:48.7,750,737,677,715,758,0,1,0
43:48.7,750,746,712,754,726,0,1,0
43:48.7,767,751,540,720,712,0,1,0
43:48.7,763,761,619,719,746,0,1,0
43:48.7,762,744,675,749,763,0,1,0
43:48.8,790,761,845,764,791,0,1,0
43:48.8,771,754,743,733,863,0,1,0
43:48.8,784,763,679,747,771,0,1,0
43:48.8,765,766,646,738,770,0,1,0
43:48.8,778,754,716,752,785,0,1,0
43:48.9,785,778,643,762,795,0,1,0
43:48.9,804,754,677,742,760,0,1,0
43:48.9,762,727,1023,722,715,0,1,0
43:48.9,776,763,614,743,892,0,1,0
43:48.9,771,750,710,719,750,0,1,0
43:48.9,808,746,719,748,788,0,1,0
43:48.9,768,744,739,743,766,0,1,0
43:49.0,763,743,707,709,749,0,1,0
43:49.0,774,745,900,738,763,0,1,0
43:49.1,706,740,713,732,789,0,1,0
43:49.1,753,755,702,738,742,0,1,0
43:49.1,775,761,473,755,782,0,1,0
43:49.1,752,743,803,735,755,0,1,0
43:49.1,769,737,856,703,809,0,1,0
43:49.1,772,744,704,771,870,0,1,0
43:49.1,761,736,680,718,768,0,1,0
43:49.2,755,738,695,736,736,0,1,0
43:49.2,766,746,733,719,747,0,1,0
43:49.2,754,752,763,774,783,0,1,0
43:49.2,761,745,651,722,742,0,1,0
43:49.2,770,741,843,742,735,0,1,0
43:49.3,766,745,667,719,769,0,1,0
43:49.3,787,748,659,735,772,0,1,0
43:49.3,757,742,744,733,759,0,1,0
43:49.3,755,702,765,731,792,0,1,0
43:49.4,768,740,547,742,771,0,1,0
43:49.4,764,740,710,722,755,0,1,0
43:49.4,735,762,654,726,779,0,1,0
43:49.4,765,734,697,734,772,0,1,0
43:49.4,758,778,730,742,758,0,1,0
43:49.5,754,752,702,739,755,0,1,0
43:49.5,748,740,784,716,661,0,1,0
43:49.5,757,746,826,726,717,0,1,0
43:49.5,729,744,695,735,812,0,1,0
43:49.5,782,749,703,738,776,0,1,0
43:49.6,772,755,642,742,779,0,1,0
43:49.6,757,747,654,739,804,0,1,0
43:49.6,758,744,814,720,760,0,1,0
43:49.6,770,747,711,734,758,0,1,0
43:49.6,751,737,667,721,771,0,1,0
43:49.7,750,747,721,743,744,0,1,0
43:49.7,778,746,724,737,789,0,1,0
43:49.7,752,744,782,727,790,0,1,0
43:49.7,757,734,734,722,699,0,1,0
43:49.8,771,731,740,739,770,0,1,0
43:49.8,735,739,784,739,806,0,1,0
43:49.8,766,731,736,727,828,0,1,0
43:49.8,770,748,684,743,788,0,1,0
43:49.8,750,743,700,732,638,0,1,0
43:49.8,773,742,710,742,737,0,1,0
43:49.8,761,731,629,727,783,0,1,0
43:49.9,775,743,772,744,720,0,1,0
43:49.9,764,746,675,739,839,0,1,0
43:49.9,759,735,570,706,802,0,1,0
43:49.9,779,778,655,715,730,0,1,0
43:49.9,779,748,671,756,961,0,1,0
43:49.9,800,747,832,725,791,0,1,0
43:49.9,775,744,653,731,741,0,1,0
43:50.0,771,742,638,727,766,0,1,0
43:50.0,811,751,716,752,797,0,1,0
43:50.1,776,748,611,738,848,0,1,0
43:50.1,761,751,582,734,908,0,1,0
43:50.1,757,747,775,741,776,0,1,0
43:50.1,759,735,702,728,739,0,1,0
43:50.1,732,735,643,725,691,0,1,0
43:50.2,757,746,748,727,746,0,1,0
43:50.2,762,761,723,756,786,0,1,0
43:50.2,757,739,692,725,735,0,1,0
43:50.2,763,736,678,745,805,0,1,0
43:50.2,762,738,535,708,773,0,1,0
43:50.3,726,716,935,719,696,0,1,0
43:50.3,787,745,690,755,769,0,1,0
43:50.3,760,728,605,735,743,0,1,0
43:50.3,755,736,1023,735,751,0,1,0
43:50.3,777,729,710,735,763,0,1,0
43:50.4,765,746,735,743,789,0,1,0
43:50.4,765,742,812,675,750,0,1,0
43:50.4,766,763,776,737,798,0,1,0
43:50.4,770,736,675,734,782,0,1,0
43:50.4,766,743,806,740,763,0,1,0
43:50.4,748,742,751,711,724,0,1,0
43:50.5,762,736,1023,736,723,0,1,0
43:50.5,747,752,734,720,771,0,1,0
43:50.5,731,723,739,719,959,0,1,0
43:50.5,764,754,722,726,766,0,1,0
43:50.5,751,746,877,736,826,0,1,0
43:50.6,761,741,752,756,894,0,1,0
43:50.6,757,748,649,715,715,0,1,0
43:50.6,791,730,714,720,821,0,1,0
43:50.6,757,700,805,736,727,0,1,0
43:50.6,775,746,722,740,755,0,1,0
43:50.7,767,730,628,730,771,0,1,0
43:50.7,720,745,762,741,737,0,1,0
43:50.7,742,745,644,721,752,0,1,0
43:50.7,754,743,707,736,747,0,1,0
43:50.8,751,753,747,752,816,0,1,0
43:50.8,778,740,643,739,770,0,1,0
43:50.8,764,740,739,731,736,0,1,0
43:50.8,758,740,765,694,779,0,1,0
43:50.8,762,741,778,729,785,0,1,0
43:50.9,771,752,623,744,730,0,1,0
43:50.9,783,742,712,709,755,0,1,0
43:50.9,763,718,715,715,814,0,1,0
43:50.9,764,739,707,758,751,0,1,0
43:50.9,756,724,1023,695,730,0,1,0
43:50.9,727,733,722,722,783,0,1,0
43:50.9,779,752,765,731,697,0,1,0
43:51.0,774,744,691,728,738,0,1,0
43:51.0,771,728,759,722,763,0,1,0
43:51.1,764,742,667,738,764,0,1,0
43:51.1,759,724,663,723,829,0,1,0
43:51.1,775,752,850,739,788,0,1,0
43:51.1,762,730,651,737,830,0,1,0
43:51.1,759,737,649,723,752,0,1,0
43:51.1,766,734,800,744,770,0,1,0
43:51.1,783,745,701,744,812,0,1,0
43:51.2,739,731,624,727,758,0,1,0
43:51.2,774,745,694,735,822,0,1,0
43:51.2,751,758,691,734,831,0,1,0
43:51.2,756,737,648,732,762,0,1,0
43:51.2,752,740,707,723,850,0,1,0
43:51.3,769,738,675,723,746,0,1,0
43:51.3,773,734,699,709,759,0,1,0
43:51.3,778,740,664,741,755,0,1,0
43:51.3,763,729,675,739,760,0,1,0
43:51.3,751,746,819,732,760,0,1,0
43:51.4,748,740,736,735,843,0,1,0
43:51.4,778,744,607,738,772,0,1,0
43:51.4,761,740,638,752,752,0,1,0
43:51.4,783,740,635,728,758,0,1,0
43:51.5,776,757,828,730,726,0,1,0
43:51.5,780,737,667,737,728,0,1,0
43:51.5,775,792,671,753,767,0,1,0
43:51.5,766,726,807,721,789,0,1,0
43:51.5,736,754,740,730,760,0,1,0
43:51.6,752,733,665,750,794,0,1,0
43:51.6,786,744,833,731,782,0,1,0
43:51.6,775,745,696,744,719,0,1,0
43:51.6,760,742,698,767,755,0,1,0
43:51.6,765,724,760,734,768,0,1,0
43:51.7,760,730,772,754,783,0,1,0
43:51.7,771,747,702,740,784,0,1,0
43:51.7,765,742,895,731,771,0,1,0
43:51.7,771,740,857,724,774,0,1,0
43:51.8,770,739,715,753,844,0,1,0
43:51.8,779,732,775,729,763,0,1,0
43:51.8,757,726,710,715,773,0,1,0
43:51.8,810,750,715,744,721,0,1,0
43:51.8,784,743,880,744,724,0,1,0
43:51.9,761,744,786,747,789,0,1,0
43:51.9,769,715,718,728,730,0,1,0
43:51.9,776,734,614,736,787,0,1,0
43:51.9,755,713,710,747,733,0,1,0
43:51.9,786,739,694,748,816,0,1,0
43:51.9,765,730,778,738,739,0,1,0
43:51.9,792,731,725,755,783,0,1,0
43:51.9,775,729,668,738,702,0,1,0
43:51.9,783,741,725,769,906,0,1,0
43:51.9,779,746,678,764,776,0,1,0
43:52.0,770,738,610,764,820,0,1,0
43:52.0,756,743,682,747,773,0,1,0
43:52.1,755,742,735,724,744,0,1,0
43:52.1,790,739,694,774,757,0,1,0
43:52.1,779,739,684,736,773,0,1,0
43:52.1,754,730,731,733,726,0,1,0
43:52.1,741,730,800,737,693,0,1,0
43:52.2,779,737,786,746,786,0,1,0
43:52.2,756,727,711,742,774,0,1,0
43:52.2,754,751,668,753,645,0,1,0
43:52.2,775,743,702,743,780,0,1,0
43:52.3,773,751,653,758,796,0,1,0
43:52.3,761,741,723,757,714,0,1,0
43:52.3,758,738,684,777,765,0,1,0
43:52.3,755,739,747,758,817,0,1,0
43:52.3,763,720,734,747,807,0,1,0
43:52.4,773,742,710,714,822,0,1,0
43:52.4,785,772,796,745,803,0,1,0
43:52.4,762,718,778,752,695,0,1,0
43:52.4,779,746,839,763,860,0,1,0
43:52.4,791,733,802,745,710,0,1,0
43:52.5,793,734,761,755,703,0,1,0
43:52.5,747,746,741,743,803,0,1,0
43:52.5,764,749,684,729,801,0,1,0
43:52.5,770,744,721,748,810,0,1,0
43:52.6,769,733,1023,731,801,0,1,0
43:52.6,755,744,776,755,760,0,1,0
43:52.6,774,735,665,707,771,0,1,0
43:52.6,745,744,802,779,739,0,1,0
43:52.6,782,744,738,744,780,0,1,0
43:52.6,757,742,729,731,719,0,1,0
43:52.6,782,764,869,772,783,0,1,0
43:52.7,734,745,774,779,763,0,1,0
43:52.7,773,737,479,737,740,0,1,0
43:52.7,788,735,774,747,742,0,1,0
43:52.7,763,732,591,755,726,0,1,0
43:52.7,770,798,771,759,795,0,1,0
43:52.8,770,747,685,747,762,0,1,0
43:52.8,774,771,735,755,786,0,1,0
43:52.8,787,741,704,748,774,0,1,0
43:52.8,811,735,728,775,791,0,1,0
43:52.8,766,723,542,746,777,0,1,0
43:52.9,750,735,729,731,757,0,1,0
43:52.9,765,737,691,752,821,0,1,0
43:52.9,755,729,691,735,732,0,1,0
43:52.9,763,728,671,763,782,0,1,0
43:52.9,762,746,716,713,774,0,1,0
43:52.9,770,740,731,726,730,0,1,0
43:52.9,775,743,598,741,902,0,1,0
43:53.0,778,749,872,745,794,0,1,0
43:53.0,756,737,684,747,773,0,1,0
43:53.1,763,747,699,731,803,0,1,0
43:53.1,761,735,693,756,765,0,1,0
43:53.1,763,726,700,735,730,0,1,0
43:53.1,753,719,701,737,753,0,1,0
43:53.1,770,739,742,741,753,0,1,0
43:53.2,762,744,710,759,724,0,1,0
43:53.2,758,739,707,743,769,0,1,0
43:53.2,766,736,693,746,757,0,1,0
43:53.2,778,722,628,734,770,0,1,0
43:53.3,769,734,695,719,744,0,1,0
43:53.3,770,741,692,769,755,0,1,0
43:53.3,779,739,817,772,820,0,1,0
43:53.3,772,723,611,754,748,0,1,0
43:53.3,763,733,619,751,772,0,1,0
43:53.4,754,729,787,753,718,0,1,0
43:53.4,764,743,571,752,771,0,1,0
43:53.4,759,731,598,763,723,0,1,0
43:53.4,743,742,802,794,741,0,1,0
43:53.4,776,739,620,812,769,0,1,0
43:53.4,752,735,656,726,777,0,1,0
43:53.4,765,733,831,755,763,0,1,0
43:53.5,764,755,715,772,771,0,1,0
43:53.5,777,731,635,729,759,0,1,0
43:53.5,771,740,707,764,787,0,1,0
43:53.5,763,734,731,747,760,0,1,0
43:53.5,750,744,611,775,830,0,1,0
43:53.6,754,738,634,775,745,0,1,0
43:53.6,763,730,707,772,756,0,1,0
43:53.6,770,734,696,781,782,0,1,0
43:53.6,748,715,696,731,800,0,1,0
43:53.7,761,748,731,763,782,0,1,0
43:53.7,755,719,659,757,803,0,1,0
43:53.7,760,716,623,741,777,0,1,0
43:53.7,763,733,727,743,811,0,1,0
43:53.7,742,734,702,760,774,0,1,0
43:53.8,738,729,687,746,756,0,1,0
43:53.8,746,730,555,747,951,0,1,0
43:53.8,754,735,800,764,744,0,1,0
43:53.8,763,744,693,734,823,0,1,0
43:53.8,758,730,707,736,764,0,1,0
43:53.9,748,729,708,732,727,0,1,0
43:53.9,749,742,747,763,827,0,1,0
43:53.9,751,738,615,764,747,0,1,0
43:53.9,781,735,627,764,647,0,1,0
43:53.9,763,743,706,752,761,0,1,0
43:53.9,754,737,719,754,783,0,1,0
43:53.9,752,738,767,768,806,0,1,0
43:54.0,775,733,724,763,757,0,1,0
43:54.0,731,744,744,757,731,0,1,0
43:54.1,743,744,814,774,762,0,1,0
43:54.1,741,732,623,740,737,0,1,0
43:54.1,746,736,734,748,691,0,1,0
43:54.1,756,718,760,732,844,0,1,0
43:54.1,740,733,740,739,755,0,1,0
43:54.1,738,713,714,719,779,0,1,0
43:54.1,763,729,694,751,761,0,1,0
43:54.2,731,731,694,706,759,0,1,0
43:54.2,747,729,688,745,763,0,1,0
43:54.2,754,741,566,762,761,0,1,0
43:54.2,755,737,635,748,766,0,1,0
43:54.2,731,726,937,762,733,0,1,0
43:54.3,747,722,735,760,734,0,1,0
43:54.3,745,731,835,730,736,0,1,0
43:54.3,744,736,736,756,675,0,1,0
43:54.3,772,742,817,765,747,0,1,0
43:54.4,750,732,739,749,753,0,1,0
43:54.4,719,730,775,742,757,0,1,0
43:54.4,748,730,762,780,783,0,1,0
43:54.4,767,738,715,757,770,0,1,0
43:54.4,768,730,867,771,741,0,1,0
43:54.5,747,732,763,744,770,0,1,0
43:54.5,743,754,675,750,797,0,1,0
43:54.5,755,727,741,758,827,0,1,0
43:54.5,770,748,626,746,771,0,1,0
43:54.5,746,735,659,776,728,0,1,0
43:54.6,763,704,837,743,772,0,1,0
43:54.6,763,747,660,739,787,0,1,0
43:54.6,719,734,579,751,855,0,1,0
43:54.6,751,718,631,737,775,0,1,0
43:54.7,743,727,612,735,764,0,1,0
43:54.7,747,754,698,753,775,0,1,0
43:54.7,771,738,735,754,740,0,1,0
43:54.7,726,725,921,752,761,0,1,0
43:54.7,758,724,652,751,749,0,1,0
43:54.8,763,740,720,747,805,0,1,0
43:54.8,743,733,726,764,641,0,1,0
43:54.8,731,730,770,755,739,0,1,0
43:54.8,742,723,565,756,746,0,1,0
43:54.8,753,729,747,748,749,0,1,0
43:54.8,745,734,727,766,815,0,1,0
43:54.8,709,726,763,751,820,0,1,0
43:54.9,740,738,724,765,757,0,1,0
43:54.9,766,747,691,766,783,0,1,0
43:54.9,755,739,708,763,780,0,1,0
43:54.9,754,741,506,787,787,0,1,0
43:54.9,751,723,658,745,786,0,1,0
43:54.9,732,731,711,755,777,0,1,0
43:54.9,749,716,779,738,873,0,1,0
43:55.0,732,733,673,751,753,0,1,0
43:55.0,769,740,779,765,777,0,1,0
43:55.0,751,753,685,744,795,0,1,0
43:55.1,747,731,730,761,770,0,1,0
43:55.1,746,743,766,753,831,0,1,0
43:55.1,776,747,683,742,779,0,1,0
43:55.1,755,721,638,760,751,0,1,0
43:55.2,763,737,728,743,798,0,1,0
43:55.2,731,730,920,763,771,0,1,0
43:55.2,756,723,666,739,731,0,1,0
43:55.2,755,727,796,751,726,0,1,0
43:55.2,751,731,828,756,882,0,1,0
43:55.3,751,739,771,760,707,0,1,0
43:55.3,712,752,769,774,801,0,1,0
43:55.3,739,730,734,771,743,0,1,0
43:55.3,737,728,809,766,868,0,1,0
43:55.3,744,759,665,766,779,0,1,0
43:55.4,729,739,701,758,734,0,1,0
43:55.4,743,739,771,735,632,0,1,0
43:55.4,746,722,750,755,811,0,1,0
43:55.4,761,734,691,771,828,0,1,0
43:55.5,744,735,635,743,758,0,1,0
43:55.5,759,735,656,779,775,0,1,0
43:55.5,709,743,802,755,796,0,1,0
43:55.5,751,740,723,765,748,0,1,0
43:55.5,766,731,709,751,758,0,1,0
43:55.5,755,739,825,720,780,0,1,0
43:55.5,773,736,724,749,737,0,1,0
43:55.6,750,718,819,751,764,0,1,0
43:55.6,754,739,733,775,779,0,1,0
43:55.6,747,717,793,763,807,0,1,0
43:55.6,726,741,717,779,703,0,1,0
43:55.6,727,737,653,766,620,0,1,0
43:55.7,743,739,730,759,738,0,1,0
43:55.7,739,731,664,757,811,0,1,0
43:55.7,773,739,713,748,691,0,1,0
43:55.7,747,674,695,752,702,0,1,0
43:55.7,751,754,713,788,766,0,1,0
43:55.8,725,719,736,739,711,0,1,0
43:55.8,755,721,657,762,771,0,1,0
43:55.8,776,746,847,755,751,0,1,0
43:55.8,709,740,695,755,712,0,1,0
43:55.9,743,728,816,765,767,0,1,0
43:55.9,732,729,841,744,738,0,1,0
43:55.9,763,732,681,751,756,0,1,0
43:55.9,738,727,690,758,751,0,1,0
43:55.9,739,731,666,762,743,0,1,0
43:55.9,770,739,723,754,765,0,1,0
43:55.9,762,727,727,743,693,0,1,0
43:56.0,744,735,719,759,791,0,1,0
43:56.0,739,732,628,769,750,0,1,0
43:56.0,736,765,778,764,799,0,1,0
43:56.1,737,736,739,762,804,0,1,0
43:56.1,751,737,731,771,847,0,1,0
43:56.1,741,728,674,764,745,0,1,0
43:56.1,745,735,646,777,785,0,1,0
43:56.2,744,749,670,763,831,0,1,0
43:56.2,735,726,652,740,683,0,1,0
43:56.2,772,791,723,763,793,0,1,0
43:56.2,742,745,770,764,779,0,1,0
43:56.2,739,736,726,744,778,0,1,0
43:56.2,743,748,793,771,799,0,1,0
43:56.2,737,722,664,767,758,0,1,0
43:56.3,723,738,707,752,728,0,1,0
43:56.3,736,735,601,747,752,0,1,0
43:56.3,737,728,667,746,879,0,1,0
43:56.3,735,745,784,763,758,0,1,0
43:56.3,732,741,681,765,795,0,1,0
43:56.4,734,737,719,747,697,0,1,0
43:56.4,732,736,669,750,775,0,1,0
43:56.4,715,726,726,792,814,0,1,0
43:56.4,755,738,699,763,744,0,1,0
43:56.4,752,744,723,779,766,0,1,0
43:56.5,751,747,659,771,763,0,1,0
43:56.5,775,733,720,759,786,0,1,0
43:56.5,771,738,675,758,749,0,1,0
43:56.5,747,739,688,777,864,0,1,0
43:56.5,736,744,823,756,693,0,1,0
43:56.6,736,754,742,750,797,0,1,0
43:56.6,748,732,699,751,803,0,1,0
43:56.6,748,733,771,759,664,0,1,0
43:56.6,752,743,724,766,751,0,1,0
43:56.7,755,756,758,782,759,0,1,0
43:56.7,698,722,912,758,729,0,1,0
43:56.7,746,732,748,783,762,0,1,0
43:56.7,748,739,651,763,799,0,1,0
43:56.7,751,726,678,779,757,0,1,0
43:56.8,709,717,651,789,753,0,1,0
43:56.8,743,746,790,746,747,0,1,0
43:56.8,733,733,659,767,747,0,1,0
43:56.8,739,737,808,751,791,0,1,0
43:56.8,752,751,761,813,771,0,1,0
43:56.9,722,739,839,771,788,0,1,0
43:56.9,752,739,707,762,815,0,1,0
43:56.9,735,735,743,753,720,0,1,0
43:56.9,737,742,671,769,764,0,1,0
43:56.9,739,747,652,771,769,0,1,0
43:56.9,746,730,735,774,767,0,1,0
43:56.9,747,747,743,761,748,0,1,0
43:56.9,738,706,807,763,738,0,1,0
43:56.9,767,741,792,766,763,0,1,0
43:57.0,726,738,697,746,727,0,1,0
43:57.0,774,719,741,706,763,0,1,0
43:57.1,706,743,866,632,722,0,1,0
43:57.1,707,726,870,759,740,0,1,0
43:57.1,891,747,789,795,787,0,1,0
43:57.1,785,782,700,751,761,0,1,0
43:57.1,721,747,808,746,759,0,1,0
43:57.2,684,718,655,746,701,0,1,0
43:57.2,860,738,728,765,766,0,1,0
43:57.2,819,761,784,773,739,0,1,0
43:57.2,733,751,743,784,740,0,1,0
43:57.3,947,748,788,835,789,0,1,0
43:57.3,869,723,908,752,799,0,1,0
43:57.3,715,740,1023,803,792,0,1,0
43:57.3,754,737,716,776,853,0,1,0
43:57.3,729,732,720,794,942,0,1,0
43:57.4,675,718,627,746,714,0,1,0
43:57.4,792,716,746,749,736,0,1,0
43:57.4,696,732,761,761,722,0,1,0
43:57.4,723,747,691,775,727,0,1,0
43:57.4,790,758,815,778,765,0,1,0
43:57.5,782,721,658,771,774,0,1,0
43:57.5,713,714,935,745,712,0,1,0
43:57.5,754,741,769,763,762,0,1,0
43:57.5,674,723,758,739,841,0,1,0
43:57.5,723,721,1023,761,690,0,1,0
43:57.6,735,741,846,805,788,0,1,0
43:57.6,740,751,731,753,740,0,0,0
43:57.6,802,743,799,739,849,0,0,0
43:57.6,711,743,780,747,811,0,0,1
43:57.7,736,745,783,817,739,0,0,1
43:57.7,812,757,627,786,784,0,0,1
43:57.7,790,752,995,796,765,0,0,1
43:57.7,729,735,749,763,747,0,0,1
43:57.7,779,726,925,779,765,0,0,1
43:57.7,729,739,722,762,704,0,0,1
43:57.7,739,747,735,776,879,0,0,1
43:57.8,765,747,738,783,751,0,0,1
43:57.8,744,730,749,762,763,0,0,1
43:57.8,713,766,638,735,806,0,0,1
43:57.8,712,747,789,794,780,0,0,1
43:57.8,747,736,608,772,699,0,0,1
43:57.9,732,744,661,754,709,0,0,1
43:57.9,723,725,762,783,725,0,0,1
43:57.9,812,766,947,779,763,0,0,1
43:57.9,705,764,887,790,723,0,0,1
43:57.9,807,706,498,737,727,0,0,1
43:57.9,687,729,647,756,760,0,0,1
43:57.9,678,731,652,761,659,0,0,1
43:58.0,707,737,712,771,732,0,0,1
43:58.0,760,755,822,776,707,0,0,1
43:58.1,717,751,845,772,771,0,0,1
43:58.1,751,739,591,766,712,0,0,1
43:58.1,736,729,616,756,756,0,0,1
43:58.1,733,747,835,792,707,0,0,1
43:58.1,747,749,707,772,749,0,0,1
43:58.2,709,739,741,779,745,0,0,1
43:58.2,721,730,724,739,763,0,0,1
43:58.2,728,749,761,784,726,0,0,1
43:58.2,824,728,776,731,716,0,0,1
43:58.2,733,742,683,773,845,0,0,1
43:58.3,715,724,690,763,759,0,0,1
43:58.3,703,737,841,757,729,0,0,1
43:58.3,793,752,835,753,562,0,0,1
43:58.3,735,743,753,759,791,0,0,1
43:58.4,738,731,734,791,771,0,0,1
43:58.4,735,729,803,775,766,0,0,1
43:58.4,779,740,763,794,720,0,0,1
43:58.4,739,732,721,774,819,0,0,1
43:58.4,727,744,818,783,792,0,0,1
43:58.4,705,739,649,770,758,0,0,1
43:58.4,718,738,677,811,804,0,0,1
43:58.5,732,748,723,772,755,0,0,1
43:58.5,728,765,752,761,760,0,0,1
43:58.5,707,724,798,760,741,0,0,1
43:58.5,789,740,681,749,694,0,0,1
43:58.5,763,739,698,763,775,0,0,1
43:58.6,731,735,868,770,736,0,0,1
43:58.6,777,742,795,788,769,0,0,1
43:58.6,723,740,731,773,794,0,0,1
43:58.6,712,743,721,746,724,0,0,1
43:58.6,731,730,631,726,704,0,0,1
43:58.7,762,715,708,777,790,0,0,1
43:58.7,779,746,769,785,750,0,0,1
43:58.7,731,745,897,781,721,0,0,1
43:58.7,791,751,862,784,795,0,0,1
43:58.8,775,740,821,715,788,0,0,1
43:58.8,731,739,746,787,815,0,0,1
43:58.8,765,739,707,779,744,0,0,1
43:58.8,707,727,563,723,755,0,0,1
43:58.8,732,735,667,768,770,0,0,1
43:58.9,724,739,779,777,718,0,0,1
43:58.9,714,732,803,785,771,0,0,1
43:58.9,701,737,739,779,700,0,0,1
43:58.9,740,737,787,759,759,0,0,1
43:58.9,745,722,727,765,743,0,0,1
43:58.9,731,739,782,761,683,0,0,1
43:58.9,707,739,770,761,739,0,0,1
43:59.0,719,720,783,770,734,0,0,1
43:59.0,709,739,728,741,710,0,0,1
43:59.0,738,747,773,786,764,0,0,1
43:59.1,751,747,788,769,781,0,0,1
43:59.1,693,743,651,790,775,0,0,1
43:59.1,731,740,838,771,730,0,0,1
43:59.1,741,729,766,767,724,0,0,1
43:59.2,744,743,661,763,713,0,0,1
43:59.2,719,747,771,764,772,0,0,1
43:59.2,733,724,755,744,739,0,0,1
43:59.2,727,710,875,739,769,0,0,1
43:59.2,683,732,680,751,747,0,0,1
43:59.2,760,743,838,781,737,0,0,1
43:59.2,739,747,894,778,804,0,0,1
43:59.3,731,739,773,755,722,0,0,1
43:59.3,739,733,635,783,723,0,0,1
43:59.3,716,730,777,787,743,0,0,1
43:59.3,716,744,671,783,729,0,0,1
43:59.3,688,734,848,780,741,0,0,1
43:59.4,718,745,839,761,753,0,0,1
43:59.4,713,749,805,785,732,0,0,1
43:59.4,724,731,803,740,602,0,0,1
43:59.4,702,728,759,779,765,0,0,1
43:59.4,718,744,752,787,752,0,0,1
43:59.5,701,729,741,764,819,0,0,1
43:59.5,722,739,828,793,751,0,0,1
43:59.5,759,746,825,788,822,0,0,1
43:59.5,754,728,715,748,735,0,0,1
43:59.6,729,738,757,774,739,0,0,1
43:59.6,739,734,672,772,706,0,0,1
43:59.6,720,741,531,735,656,0,0,1
43:59.6,691,738,735,775,730,0,0,1
43:59.6,699,731,752,762,725,0,0,1
43:59.7,676,723,748,755,693,0,0,1
43:59.7,740,731,704,761,715,0,0,1
43:59.7,720,726,963,769,796,0,0,1
43:59.7,709,746,674,760,718,0,0,1
43:59.8,743,748,822,743,724,0,0,1
43:59.8,739,733,717,751,726,0,0,1
43:59.8,744,731,729,775,833,0,0,1
43:59.8,720,729,706,728,739,0,0,1
43:59.8,685,721,675,759,675,0,0,1
43:59.9,772,740,816,758,671,0,0,1
43:59.9,719,740,672,823,725,0,0,1
43:59.9,722,740,810,791,716,0,0,1
43:59.9,704,714,706,726,680,0,0,1
43:59.9,682,721,787,715,721,0,0,1
43:59.9,735,733,618,775,718,0,0,1
43:59.9,740,734,543,777,741,0,0,1
43:59.9,715,744,651,769,721,0,0,1
43:59.9,759,719,785,770,737,0,0,1
43:59.9,748,726,789,753,659,0,0,1
44:00.0,738,736,768,759,730,0,0,1
44:00.0,726,726,807,778,747,0,0,1
44:00.1,723,722,667,751,738,0,0,1
44:00.1,722,726,972,775,739,0,0,1
44:00.1,698,731,722,794,752,0,0,1
44:00.1,731,723,599,760,669,0,0,1
44:00.2,715,732,762,772,732,0,0,1
44:00.2,716,738,797,758,715,0,0,1
44:00.2,725,745,906,787,719,0,0,1
44:00.2,712,750,904,752,772,0,0,1
44:00.2,687,735,726,756,796,0,0,1
44:00.3,707,739,861,756,710,0,0,1
44:00.3,727,732,760,783,731,0,0,1
44:00.3,699,727,747,737,739,0,0,1
44:00.3,738,717,730,758,770,0,0,1
44:00.3,714,730,771,779,696,0,0,1
44:00.4,701,740,892,765,750,0,0,1
44:00.4,707,734,762,761,700,0,0,1
44:00.4,727,747,864,783,790,0,0,1
44:00.4,716,722,770,778,727,0,0,1
44:00.4,739,763,765,790,726,0,0,1
44:00.5,646,732,829,764,699,0,0,1
44:00.5,723,743,705,766,730,0,0,1
44:00.5,706,732,871,796,742,0,0,1
44:00.5,708,735,803,767,740,0,0,1
44:00.6,683,727,863,755,743,0,0,1
44:00.6,736,739,782,776,727,0,0,1
44:00.6,713,740,762,773,730,0,0,1
44:00.6,713,752,699,772,747,0,0,1
44:00.6,723,734,763,764,734,0,0,1
44:00.6,698,730,708,758,740,0,0,1
44:00.6,720,748,763,761,725,0,0,1
44:00.7,714,727,830,764,739,0,0,1
44:00.7,707,732,803,769,720,0,0,1
44:00.7,722,742,743,731,701,0,0,1
44:00.7,675,725,716,762,687,0,0,1
44:00.7,700,721,589,751,724,0,0,1
44:00.8,738,740,758,793,723,0,0,1
44:00.8,755,740,740,759,744,0,0,1
44:00.8,731,723,886,771,719,0,0,1
44:00.8,730,730,671,752,739,0,0,1
44:00.8,712,718,775,759,786,0,0,1
44:00.9,723,729,966,790,729,0,0,1
44:00.9,764,751,832,760,764,0,0,1
44:00.9,733,735,803,797,691,0,0,1
44:00.9,709,731,850,779,740,0,0,1
44:00.9,735,742,662,763,731,0,0,1
44:00.9,711,741,803,765,737,0,0,1
44:00.9,765,726,771,772,670,0,0,1
44:01.0,740,732,1023,771,635,0,0,1
44:01.0,712,743,698,790,695,0,0,1
44:01.1,707,715,813,732,709,0,0,1
44:01.1,720,724,685,771,683,0,0,1
44:01.1,668,731,813,795,650,0,0,1
44:01.1,701,723,914,781,728,0,0,1
44:01.1,716,736,803,755,691,0,0,1
44:01.2,708,739,757,772,717,0,0,1
44:01.2,658,719,723,795,759,0,0,1
44:01.2,716,726,775,771,749,0,0,1
44:01.2,691,704,535,699,713,0,0,1
44:01.3,713,730,634,780,721,0,0,1
44:01.3,654,741,790,765,683,0,0,1
44:01.3,720,768,796,777,695,0,0,1
44:01.3,694,722,475,713,730,0,0,1
44:01.3,722,729,1023,803,732,0,0,1
44:01.3,717,722,789,751,712,0,0,1
44:01.3,715,741,827,751,795,0,0,1
44:01.4,750,736,734,777,667,0,0,1
44:01.4,731,735,707,754,716,0,0,1
44:01.4,714,749,803,933,746,0,0,1
44:01.4,728,748,785,782,734,0,0,1
44:01.4,735,727,758,754,692,0,0,1
44:01.5,707,736,629,757,736,0,0,1
44:01.5,666,730,542,711,704,0,0,1
44:01.5,709,733,800,770,719,0,0,1
44:01.5,699,727,886,740,721,0,0,1
44:01.6,693,727,795,740,642,0,0,1
44:01.6,709,737,806,724,723,0,0,1
44:01.6,712,731,658,780,725,0,0,1
44:01.6,773,727,602,750,797,0,0,1
44:01.6,691,736,817,780,710,0,0,1
44:01.7,710,731,635,780,791,0,0,1
44:01.7,713,729,901,769,780,0,0,1
44:01.7,768,737,764,759,721,0,0,1
44:01.7,685,719,693,756,721,0,0,1
44:01.7,701,727,807,772,737,0,0,1
44:01.8,704,736,674,764,744,0,0,1
44:01.8,721,728,810,771,720,0,0,1
44:01.8,699,751,949,750,681,0,0,1
44:01.8,712,726,643,768,725,0,0,1
44:01.8,701,724,794,788,684,0,0,1
44:01.9,718,743,803,756,701,0,0,1
44:01.9,719,734,749,756,779,0,0,1
44:01.9,740,730,777,768,712,0,0,1
44:01.9,692,735,883,818,713,0,0,1
44:01.9,709,733,762,760,742,0,0,1
44:01.9,685,734,690,743,711,0,0,1
44:01.9,715,739,957,759,722,0,0,1
44:01.9,711,739,854,745,686,0,0,1
44:01.9,725,738,795,786,723,0,0,1
44:02.0,714,730,782,779,735,0,0,1
44:02.0,714,747,786,758,690,0,0,1
44:02.1,722,744,844,774,746,0,0,1
44:02.1,717,731,763,761,723,0,0,1
44:02.1,713,736,742,756,682,0,0,1
44:02.1,717,736,751,767,724,0,0,1
44:02.1,708,747,491,748,708,0,0,1
44:02.2,725,747,846,769,704,0,0,1
44:02.2,717,731,767,779,772,0,0,1
44:02.2,744,735,634,730,765,0,0,1
44:02.2,780,733,749,756,704,0,0,1
44:02.3,691,742,785,766,709,0,0,1
44:02.3,708,737,776,815,822,0,0,1
44:02.3,710,761,785,774,731,0,0,1
44:02.3,740,715,620,628,751,0,0,1
44:02.3,743,739,795,767,722,0,0,1
44:02.4,707,731,771,775,723,0,0,1
44:02.4,739,769,675,798,796,0,0,1
44:02.4,722,741,749,760,704,0,0,1
44:02.4,729,739,779,761,734,0,0,1
44:02.4,742,732,604,747,723,0,0,1
44:02.5,702,738,811,765,743,0,0,1
44:02.5,735,747,787,797,772,0,0,1
44:02.5,718,743,838,787,725,0,0,1
44:02.5,714,738,789,771,730,0,0,1
44:02.5,711,773,859,775,699,0,0,1
44:02.6,734,749,734,723,745,0,0,1
44:02.6,741,751,829,763,652,0,0,1
44:02.6,707,715,682,670,712,0,0,1
44:02.6,718,733,703,745,729,0,0,1
44:02.7,712,739,759,783,732,0,0,1
44:02.7,699,730,749,760,715,0,0,1
44:02.7,690,728,807,720,683,0,0,1
44:02.7,716,744,825,750,710,0,0,1
44:02.7,710,743,732,728,714,0,0,1
44:02.7,707,724,771,739,727,0,0,1
44:02.7,722,739,780,771,723,0,0,1
44:02.8,711,734,803,755,717,0,0,1
44:02.8,715,738,684,752,776,0,0,1
44:02.8,721,731,1023,743,687,0,0,1
44:02.8,751,739,721,770,718,0,0,1
44:02.8,726,734,816,771,713,0,0,1
44:02.9,727,728,915,776,723,0,0,1
44:02.9,738,731,760,737,690,0,0,1
44:02.9,733,731,728,747,755,0,0,1
44:02.9,691,725,863,744,757,0,0,1
44:02.9,707,738,763,753,702,0,0,1
44:02.9,722,724,843,771,777,0,0,1
44:02.9,731,783,970,766,587,0,0,1
44:03.0,719,737,842,763,723,0,0,1
44:03.0,710,739,925,775,701,0,0,1
44:03.1,735,715,763,756,707,0,0,1
44:03.1,709,719,786,749,607,0,0,1
44:03.1,707,729,743,761,696,0,0,1
44:03.1,699,746,798,764,717,0,0,1
44:03.1,703,719,744,740,717,0,0,1
44:03.2,665,740,766,770,671,0,0,1
44:03.2,708,746,814,781,717,0,0,1
44:03.2,708,737,911,746,708,0,0,1
44:03.2,711,741,664,762,678,0,0,1
44:03.2,711,728,766,718,721,0,0,1
44:03.3,689,731,867,772,694,0,0,1
44:03.3,724,731,836,779,814,0,0,1
44:03.3,696,730,666,746,715,0,0,1
44:03.3,733,739,805,786,719,0,0,1
44:03.4,722,749,768,774,684,0,0,1
44:03.4,819,737,814,740,686,0,0,1
44:03.4,703,729,770,752,787,0,0,1
44:03.4,696,734,680,746,704,0,0,1
44:03.4,726,740,779,748,715,0,0,1
44:03.4,763,715,816,756,687,0,0,1
44:03.4,709,746,784,760,784,0,0,1
44:03.5,712,741,766,760,695,0,0,1
44:03.5,755,752,765,763,735,0,0,1
44:03.5,672,735,835,752,628,0,0,1
44:03.5,746,731,977,764,718,0,0,1
44:03.5,655,720,828,742,754,0,0,1
44:03.6,700,726,772,747,722,0,0,1
44:03.6,711,720,868,739,741,0,0,1
44:03.6,713,736,747,763,808,0,0,1
44:03.6,682,739,653,743,716,0,0,1
44:03.6,722,743,782,743,703,0,0,1
44:03.7,728,739,855,755,679,0,0,1
44:03.7,693,732,832,734,740,0,0,1
44:03.7,740,738,691,759,748,0,0,1
44:03.7,704,739,771,771,738,0,0,1
44:03.8,713,744,739,743,710,0,0,1
44:03.8,775,736,743,747,782,0,0,1
44:03.8,722,739,945,779,735,0,0,1
44:03.8,691,736,875,762,716,0,0,1
44:03.8,671,699,774,735,696,0,0,1
44:03.9,721,743,763,761,691,0,0,1
44:03.9,686,749,851,753,690,0,0,1
44:03.9,689,716,783,745,699,0,0,1
44:03.9,704,723,815,757,721,0,0,1
44:03.9,713,731,903,735,706,0,0,1
44:03.9,724,731,803,750,736,0,0,1
44:03.9,698,740,1023,758,709,0,0,1
44:04.0,668,720,891,723,695,0,0,1
44:04.0,687,741,850,829,731,0,0,1
44:04.1,720,742,584,758,712,0,0,1
44:04.1,735,739,805,765,727,0,0,1
44:04.1,733,733,821,773,743,0,0,1
44:04.1,717,724,709,760,601,0,0,1
44:04.1,698,739,803,763,708,0,0,1
44:04.2,720,727,631,721,694,0,0,1
44:04.2,715,724,851,752,698,0,0,1
44:04.2,715,731,855,740,715,0,0,1
44:04.2,719,741,824,765,719,0,0,1
44:04.2,735,734,772,787,801,0,0,1
44:04.2,731,675,702,751,715,0,0,1
44:04.2,733,747,732,779,726,0,0,1
44:04.3,704,731,783,760,707,0,0,1
44:04.3,713,756,747,750,715,0,0,1
44:04.3,724,751,661,750,730,0,0,1
44:04.3,720,732,766,740,718,0,0,1
44:04.3,750,719,990,756,745,0,0,1
44:04.4,730,743,691,776,718,0,0,1
44:04.4,718,736,739,746,714,0,0,1
44:04.4,720,731,743,804,719,0,0,1
44:04.4,716,732,793,722,716,0,0,1
44:04.4,675,739,849,763,736,0,0,1
44:04.5,718,740,796,753,707,0,0,1
44:04.5,710,727,779,757,719,0,0,1
44:04.5,722,730,683,741,702,0,0,1
44:04.5,721,739,787,756,711,0,0,1
44:04.6,676,723,950,755,710,0,0,1
44:04.6,698,733,827,770,719,0,0,1
44:04.6,706,737,724,727,694,0,0,1
44:04.6,702,726,906,747,695,0,0,1
44:04.6,695,723,769,749,716,0,0,1
44:04.7,709,751,745,788,743,0,0,1
44:04.7,720,719,755,751,723,0,0,1
44:04.7,718,716,760,739,688,0,0,1
44:04.7,772,740,799,755,741,0,0,1
44:04.7,733,719,749,739,721,0,0,1
44:04.8,728,729,844,751,719,0,0,1
44:04.8,739,736,995,755,796,0,0,1
44:04.8,699,733,720,734,720,0,0,1
44:04.8,715,736,790,747,707,0,0,1
44:04.9,705,728,750,747,706,0,0,1
44:04.9,733,743,660,885,747,0,0,1
44:04.9,695,738,801,776,724,0,0,1
44:04.9,721,729,734,743,706,0,0,1
44:04.9,716,738,887,764,716,0,0,1
44:04.9,717,739,823,761,676,0,0,1
44:04.9,693,733,779,751,707,0,0,1
44:04.9,694,726,784,758,629,0,0,1
44:04.9,749,736,867,746,710,0,0,1
44:04.9,740,725,467,735,731,0,0,1
44:05.0,713,739,796,732,670,0,0,1
44:05.0,683,727,792,738,719,0,0,1
44:05.1,719,721,785,753,694,0,0,1
44:05.1,712,741,832,675,712,0,0,1
44:05.1,724,731,692,898,718,0,0,1
44:05.1,710,723,615,719,683,0,0,1
44:05.1,782,731,695,740,731,0,0,1
44:05.2,742,727,734,739,711,0,0,1
44:05.2,729,722,695,752,716,0,0,1
44:05.2,713,730,766,733,655,0,0,1
44:05.2,707,709,697,739,744,0,0,1
44:05.2,825,735,806,716,667,0,0,1
44:05.3,710,731,753,735,704,0,0,1
44:05.3,731,740,585,752,788,0,0,1
44:05.3,706,730,728,711,744,0,0,1
44:05.3,735,728,750,735,743,0,0,1
44:05.4,731,735,741,751,647,0,0,1
44:05.4,710,736,866,749,712,0,0,1
44:05.4,708,736,742,745,710,0,0,1
44:05.4,728,730,840,765,712,0,0,1
44:05.4,743,750,862,747,728,0,0,1
44:05.5,719,727,715,757,755,0,0,1
44:05.5,732,760,976,750,703,0,0,1
44:05.5,714,739,794,753,701,0,0,1
44:05.5,715,743,777,707,715,0,0,1
44:05.5,709,745,782,736,723,0,0,1
44:05.6,723,725,667,735,717,0,0,1
44:05.6,722,725,754,774,738,0,0,1
44:05.6,695,736,783,757,765,0,0,1
44:05.6,719,745,799,763,703,0,0,1
44:05.7,718,747,608,754,711,0,0,1
44:05.7,725,733,763,726,709,0,0,1
44:05.7,681,732,812,762,666,0,0,1
44:05.7,732,729,595,704,706,0,0,1
44:05.7,723,733,772,733,704,0,0,1
44:05.8,719,731,510,719,639,0,0,1
44:05.8,674,724,749,706,731,0,0,1
44:05.8,729,736,813,754,731,0,0,1
44:05.8,685,732,784,738,697,0,0,1
44:05.8,702,722,801,751,794,0,0,1
44:05.8,716,737,703,744,720,0,0,1
44:05.8,731,739,798,749,716,0,0,1
44:05.9,714,738,831,726,705,0,0,1
44:05.9,709,730,863,741,714,0,0,1
44:05.9,707,741,639,751,705,0,0,1
44:05.9,698,718,727,692,693,0,0,1
44:05.9,709,743,850,755,707,0,0,1
44:05.9,710,729,796,745,716,0,0,1
44:05.9,725,739,753,718,667,0,0,1
44:06.0,719,733,803,743,732,0,0,1
44:06.0,724,714,688,721,662,0,0,1
44:06.1,750,751,859,763,689,0,0,1
44:06.1,719,732,934,763,699,0,0,1
44:06.1,737,738,820,735,691,0,0,1
44:06.1,690,734,819,733,690,0,0,1
44:06.1,723,738,690,732,726,0,0,1
44:06.2,712,742,822,740,715,0,0,1
44:06.2,679,741,854,758,700,0,0,1
44:06.2,730,732,643,728,674,0,0,1
44:06.2,762,733,776,747,714,0,0,1
44:06.2,687,719,797,754,695,0,0,1
44:06.3,729,739,931,731,726,0,0,1
44:06.3,698,742,811,735,695,0,0,1
44:06.3,740,732,627,724,743,0,0,1
44:06.3,711,723,808,713,724,0,0,1
44:06.4,727,733,839,730,691,0,0,1
44:06.4,683,716,781,720,699,0,0,1
44:06.4,725,719,776,747,699,0,0,1
44:06.4,730,724,767,758,764,0,0,1
44:06.4,748,747,751,755,750,0,0,1
44:06.4,735,720,772,744,706,0,0,1
44:06.4,733,740,759,748,713,0,0,1
44:06.5,732,735,788,722,688,0,0,1
44:06.5,724,743,888,764,704,0,0,1
44:06.5,704,735,781,739,704,0,0,1
44:06.5,703,732,770,746,704,0,0,1
44:06.5,752,715,657,715,706,0,0,1
44:06.6,721,732,728,721,707,0,0,1
44:06.6,726,735,788,747,703,0,0,1
44:06.6,735,730,796,745,698,0,0,1
44:06.6,722,738,872,747,707,0,0,1
44:06.6,707,728,729,722,704,0,0,1
44:06.7,694,731,803,688,770,0,0,1
44:06.7,711,734,866,736,700,0,0,1
44:06.7,731,731,724,730,709,0,0,1
44:06.7,715,731,697,717,695,0,0,1
44:06.8,716,727,772,709,669,0,0,1
44:06.8,715,722,730,695,695,0,0,1
44:06.8,731,693,806,733,731,0,0,1
44:06.8,754,739,759,735,697,0,0,1
44:06.8,719,740,743,738,723,0,0,1
44:06.9,720,738,841,732,715,0,0,1
44:06.9,756,739,719,709,718,0,0,1
44:06.9,724,731,800,736,676,0,0,1
44:06.9,762,763,777,753,755,0,0,1
44:06.9,728,730,847,738,763,0,0,1
44:06.9,751,730,812,736,712,0,0,1
44:06.9,709,727,771,731,696,0,0,1
44:07.0,742,739,882,759,718,0,0,1
44:07.0,731,729,723,739,706,0,0,1
44:07.1,697,743,757,738,737,0,0,1
44:07.1,716,735,842,808,743,0,0,1
44:07.1,740,741,789,744,725,0,0,1
44:07.1,713,735,760,726,691,0,0,1
44:07.1,711,716,788,714,737,0,0,1
44:07.2,716,743,803,728,715,0,0,1
44:07.2,713,739,791,740,773,0,0,1
44:07.2,713,746,619,683,682,0,0,1
44:07.2,727,756,677,719,697,0,0,1
44:07.2,751,750,779,750,719,0,0,1
44:07.2,719,736,787,726,698,0,0,1
44:07.2,727,725,778,732,707,0,0,1
44:07.3,766,727,694,728,700,0,0,1
44:07.3,734,732,861,748,711,0,0,1
44:07.3,742,731,814,741,713,0,0,1
44:07.3,728,725,755,724,667,0,0,1
44:07.3,723,737,821,727,669,0,0,1
44:07.4,741,736,771,740,712,0,0,1
44:07.4,681,742,944,719,754,0,0,1
44:07.4,744,740,883,728,722,0,0,1
44:07.4,731,735,771,711,683,0,0,1
44:07.5,713,739,794,751,675,0,0,1
44:07.5,739,735,738,738,732,0,0,1
44:07.5,710,742,878,730,764,0,0,1
44:07.5,711,727,841,716,695,0,0,1
44:07.5,729,740,800,715,731,0,0,1
44:07.6,728,731,678,726,722,0,0,1
44:07.6,741,734,810,708,713,0,0,1
44:07.6,720,739,738,731,735,0,0,1
44:07.6,724,753,823,738,708,0,0,1
44:07.6,720,747,791,753,736,0,0,1
44:07.7,745,723,805,755,719,0,0,1
44:07.7,704,729,805,744,707,0,0,1
44:07.7,709,731,747,745,710,0,0,1
44:07.7,732,733,734,728,744,0,0,1
44:07.8,744,738,698,705,711,0,0,1
44:07.8,706,730,668,723,716,0,0,1
44:07.8,709,729,675,740,744,0,0,1
44:07.8,732,727,771,811,712,0,0,1
44:07.8,736,728,853,741,753,0,0,1
44:07.9,727,730,739,735,715,0,0,1
44:07.9,749,734,760,731,686,0,0,1
44:07.9,731,732,812,729,686,0,0,1
44:07.9,741,735,686,712,699,0,0,1
44:07.9,733,743,801,692,727,0,0,1
44:07.9,733,730,655,717,696,0,0,1
44:07.9,715,739,767,704,715,0,0,1
44:07.9,703,715,622,731,691,0,0,1
44:07.9,737,736,811,742,759,0,0,1
44:07.9,788,736,750,748,686,0,0,1
44:08.0,741,711,561,690,687,0,0,1
44:08.0,744,711,656,747,708,0,0,1
44:08.1,717,733,770,735,715,0,0,1
44:08.1,734,727,758,716,721,0,0,1
44:08.1,762,727,744,734,732,0,0,1
44:08.1,730,717,762,715,698,0,0,1
44:08.1,755,728,796,733,735,0,0,1
44:08.2,743,736,804,747,707,0,0,1
44:08.2,769,740,799,737,676,0,0,1
44:08.2,771,739,770,807,738,0,0,1
44:08.2,732,739,753,743,711,0,0,1
44:08.3,726,740,819,705,715,0,0,1
44:08.3,727,733,782,756,759,0,0,1
44:08.3,817,744,767,720,645,0,0,1
44:08.3,719,736,838,724,630,0,0,1
44:08.3,712,723,523,698,709,0,0,1
44:08.4,734,731,886,748,725,0,0,1
44:08.4,739,739,764,735,725,0,0,1
44:08.4,721,737,892,743,732,0,0,1
44:08.4,732,732,786,745,740,0,0,1
44:08.4,765,732,736,718,680,0,0,1
44:08.5,703,732,619,728,770,0,0,1
44:08.5,719,740,783,727,703,0,0,1
44:08.5,739,777,705,739,710,0,0,1
44:08.5,695,726,831,731,776,0,0,1
44:08.6,712,725,805,749,675,0,0,1
44:08.6,747,730,711,739,719,0,0,1
44:08.6,743,721,794,730,716,0,0,1
44:08.6,762,731,743,749,727,0,0,1
44:08.6,731,731,807,739,723,0,0,1
44:08.6,723,746,735,749,783,0,0,1
44:08.6,733,736,828,731,715,0,0,1
44:08.7,724,736,931,743,728,0,0,1
44:08.7,711,724,707,757,730,0,0,1
44:08.7,731,728,844,721,720,0,0,1
44:08.7,725,695,682,721,722,0,0,1
44:08.7,708,733,823,718,703,0,0,1
44:08.8,735,731,865,789,721,0,0,1
44:08.8,662,723,750,726,646,0,0,1
44:08.8,736,726,703,734,701,0,0,1
44:08.8,720,728,787,743,702,0,0,1
44:08.8,715,726,787,723,706,0,0,1
44:08.9,701,725,691,712,660,0,0,1
44:08.9,719,732,669,742,719,0,0,1
44:08.9,722,747,737,726,772,0,0,1
44:08.9,708,739,740,733,702,0,0,1
44:08.9,749,707,845,717,716,0,0,1
44:08.9,702,738,907,723,728,0,0,1
44:08.9,710,721,635,740,718,0,0,1
44:09.0,730,734,839,733,753,0,0,1
44:09.0,747,730,840,743,722,0,0,1
44:09.1,722,719,790,731,709,0,0,1
44:09.1,713,739,655,716,707,0,0,1
44:09.1,743,731,843,757,673,0,0,1
44:09.1,736,733,849,724,721,0,0,1
44:09.1,730,736,755,728,713,0,0,1
44:09.2,711,739,777,643,880,0,0,1
44:09.2,736,732,758,739,740,0,0,1
44:09.2,763,727,777,712,708,0,0,1
44:09.2,751,729,805,726,728,0,0,1
44:09.3,735,738,794,726,711,0,0,1
44:09.3,715,735,813,726,707,0,0,1
44:09.3,723,733,803,737,703,0,0,1
44:09.3,767,732,747,743,738,0,0,1
44:09.3,756,740,786,748,715,0,0,1
44:09.3,709,739,778,742,683,0,0,1
44:09.3,715,731,728,726,715,0,0,1
44:09.4,691,726,679,699,672,0,0,1
44:09.4,702,743,832,725,685,0,0,1
44:09.4,752,754,691,709,704,0,0,1
44:09.4,714,727,900,720,729,0,0,1
44:09.4,722,729,715,726,713,0,0,1
44:09.5,784,728,799,698,711,0,0,1
44:09.5,741,729,785,737,711,0,0,1
44:09.5,745,738,815,735,708,0,0,1
44:09.5,711,740,794,725,714,0,0,1
44:09.5,711,731,671,742,708,0,0,1
44:09.6,714,781,656,722,689,0,0,1
44:09.6,722,736,915,731,677,0,0,1
44:09.6,739,728,784,742,724,0,0,1
44:09.6,726,736,556,720,739,0,0,1
44:09.7,748,736,711,731,703,0,0,1
44:09.7,721,739,692,739,715,0,0,1
44:09.7,720,737,632,720,693,0,0,1
44:09.7,747,741,777,720,704,0,0,1
44:09.7,722,726,867,723,691,0,0,1
44:09.8,753,718,790,745,715,0,0,1
44:09.8,755,739,588,736,737,0,0,1
44:09.8,731,721,725,712,708,0,0,1
44:09.8,730,759,836,761,783,0,0,1
44:09.8,750,743,796,741,726,0,0,1
44:09.9,756,740,692,729,718,0,0,1
44:09.9,755,725,718,728,707,0,0,1
44:09.9,801,763,874,737,741,0,0,1
44:09.9,745,752,836,762,727,0,0,1
44:09.9,761,742,851,699,712,0,0,1
44:09.9,748,741,863,743,691,0,0,1
44:09.9,750,760,847,756,723,0,0,1
44:09.9,731,739,684,742,758,0,0,1
44:09.9,738,741,803,732,714,0,0,1
44:10.0,723,734,781,747,763,0,0,1
44:10.0,667,734,765,735,681,0,0,1
44:10.1,723,734,757,723,697,0,0,1
44:10.1,744,726,891,738,735,0,0,1
44:10.1,754,758,778,766,737,0,0,1
44:10.1,737,746,795,738,730,0,0,1
44:10.1,729,751,787,724,693,0,0,1
44:10.2,731,739,734,738,725,0,0,1
44:10.2,726,723,824,752,714,0,0,1
44:10.2,723,742,722,731,774,0,0,1
44:10.2,747,737,731,707,712,0,0,1
44:10.3,751,744,759,736,693,0,0,1
44:10.3,722,720,753,759,726,0,0,1
44:10.3,720,739,599,731,659,0,0,1
44:10.3,708,747,770,738,715,0,0,1
44:10.3,719,741,608,709,691,0,0,1
44:10.4,739,740,670,693,771,0,0,1
44:10.4,755,734,905,727,744,0,0,1
44:10.4,733,744,779,752,680,0,0,1
44:10.4,718,743,803,728,723,0,0,1
44:10.4,746,737,652,715,719,0,0,1
44:10.5,708,738,680,729,710,0,0,1
44:10.5,727,735,819,728,739,0,0,1
44:10.5,739,746,788,754,717,0,0,1
44:10.5,723,744,847,730,731,0,0,1
44:10.6,752,733,739,728,788,0,0,1
44:10.6,715,743,832,737,719,0,0,1
44:10.6,719,747,761,720,739,0,0,1
44:10.6,707,731,611,707,711,0,0,1
44:10.6,725,749,812,734,707,0,0,1
44:10.7,733,738,816,719,684,0,0,1
44:10.7,771,735,827,726,715,0,0,1
44:10.7,801,724,873,726,687,0,0,1
44:10.7,759,754,745,731,706,0,0,1
44:10.7,718,735,887,731,727,0,0,1
44:10.7,758,735,762,739,772,0,0,1
44:10.7,723,742,770,731,723,0,0,1
44:10.8,747,736,784,712,715,0,0,1
44:10.8,772,757,779,746,773,0,0,1
44:10.8,725,727,710,690,728,0,0,1
44:10.8,718,730,631,666,699,0,0,1
44:10.8,748,743,819,722,712,0,0,1
44:10.9,723,734,761,719,718,0,0,1
44:10.9,736,742,743,723,786,0,0,1
44:10.9,744,746,798,739,755,0,0,1
44:10.9,741,747,1015,726,702,0,0,1
44:10.9,707,742,772,711,725,0,0,1
44:10.9,760,739,646,749,736,0,0,1
44:10.9,736,739,752,718,711,0,0,1
44:11.0,703,757,751,730,711,0,0,1
44:11.0,746,740,919,721,720,0,0,1
44:11.1,749,731,763,723,713,0,0,1
44:11.1,711,756,821,708,718,0,0,1
44:11.1,734,737,755,714,721,0,0,1
44:11.1,738,753,711,724,718,0,0,1
44:11.1,810,733,692,707,714,0,0,1
44:11.2,742,747,776,703,770,0,0,1
44:11.2,719,749,710,793,702,0,0,1
44:11.2,731,751,799,683,710,0,0,1
44:11.2,753,746,697,711,720,0,0,1
44:11.2,758,739,691,692,724,0,0,1
44:11.3,785,743,769,716,715,0,0,1
44:11.3,747,741,784,704,723,0,0,1
44:11.3,762,739,672,707,716,0,0,1
44:11.3,723,745,790,720,693,0,0,1
44:11.4,729,748,699,720,726,0,0,1
44:11.4,799,744,820,727,700,0,0,1
44:11.4,728,737,685,720,729,0,0,1
44:11.4,726,737,908,827,731,0,0,1
44:11.4,749,739,781,729,716,0,0,1
44:11.4,774,746,763,737,691,0,0,1
44:11.4,739,752,742,702,717,0,0,1
44:11.5,731,729,617,715,718,0,0,1
44:11.5,715,734,932,711,746,0,0,1
44:11.5,766,733,671,691,703,0,0,1
44:11.5,742,737,699,698,712,0,0,1
44:11.5,742,738,802,703,733,0,0,1
44:11.6,749,731,781,711,735,0,0,1
44:11.6,752,748,807,713,712,0,0,1
44:11.6,750,741,719,728,715,0,0,1
44:11.6,776,739,767,686,730,0,0,1
44:11.6,792,742,723,719,762,0,0,1
44:11.7,754,728,666,718,732,0,0,1
44:11.7,743,743,774,707,723,0,0,1
44:11.7,763,736,698,722,643,0,0,1
44:11.7,750,734,867,747,762,0,0,1
44:11.8,723,745,725,710,750,0,0,1
44:11.8,760,754,789,744,705,0,0,1
44:11.8,754,747,741,735,731,0,0,1
44:11.8,812,755,725,738,735,0,0,1
44:11.8,726,747,788,728,723,0,0,1
44:11.9,751,752,858,739,735,0,0,1
44:11.9,714,758,795,733,733,0,0,1
44:11.9,740,751,737,734,692,0,0,1
44:11.9,699,744,826,718,734,0,0,1
44:11.9,757,756,899,720,687,0,0,1
44:11.9,703,742,776,712,716,0,0,1
44:11.9,718,728,683,709,770,0,0,1
44:12.0,754,754,954,727,771,0,0,1
44:12.0,750,720,663,724,683,0,0,1
44:12.1,737,730,742,660,710,0,0,1
44:12.1,770,742,691,728,747,0,0,1
44:12.1,731,740,712,723,703,0,0,1
44:12.1,755,748,818,718,763,0,0,1
44:12.1,764,743,786,723,737,0,0,1
44:12.1,752,749,752,722,734,0,0,1
44:12.1,794,759,752,717,743,0,0,1
44:12.2,771,737,827,739,739,0,0,1
44:12.2,755,747,689,731,723,0,0,1
44:12.2,732,748,783,715,713,0,0,1
44:12.2,726,736,775,730,715,0,0,1
44:12.2,752,748,710,690,730,0,0,1
44:12.3,735,748,715,730,727,0,0,1
44:12.3,788,757,735,720,813,0,0,1
44:12.3,778,741,810,708,735,0,0,1
44:12.3,755,752,777,717,731,0,0,1
44:12.3,756,738,718,721,759,0,0,1
44:12.4,752,739,784,723,725,0,0,1
44:12.4,747,743,771,723,757,0,0,1
44:12.4,752,739,698,740,737,0,0,1
44:12.4,725,744,804,731,693,0,0,1
44:12.5,759,750,698,721,738,0,0,1
44:12.5,748,746,748,731,740,0,0,1
44:12.5,793,752,800,739,732,0,0,1
44:12.5,736,743,832,671,732,0,0,1
44:12.5,743,732,614,671,745,0,0,1
44:12.6,775,739,712,723,786,0,0,1
44:12.6,771,740,777,739,732,0,0,1
44:12.6,763,749,755,729,751,0,0,1
44:12.6,742,732,880,679,751,0,0,1
44:12.6,747,733,752,651,719,0,0,1
44:12.7,759,739,716,718,742,0,0,1
44:12.7,788,727,702,724,731,0,0,1
44:12.7,818,734,691,716,771,0,0,1
44:12.7,837,721,671,716,720,0,0,1
44:12.8,759,748,780,712,748,0,0,1
44:12.8,755,738,749,734,726,0,0,1
44:12.8,803,731,721,719,722,0,0,1
44:12.8,747,760,893,685,705,0,0,1
44:12.8,740,744,705,760,750,0,0,1
44:12.9,754,742,627,763,738,0,0,1
44:12.9,755,746,841,729,739,0,0,1
44:12.9,755,742,776,738,733,0,0,1
44:12.9,759,752,739,686,698,0,0,1
44:12.9,756,739,693,725,730,0,0,1
44:12.9,725,739,707,714,741,0,0,1
44:12.9,803,739,723,759,775,0,0,1
44:12.9,750,750,875,777,704,0,0,1
44:12.9,811,766,728,908,800,0,0,1
44:13.0,783,731,635,649,750,0,0,1
44:13.0,763,745,867,700,729,0,0,1
44:13.0,844,749,748,721,747,0,0,1
44:13.1,714,718,699,674,698,0,0,1
44:13.1,731,725,728,716,700,0,0,1
44:13.1,659,731,587,675,763,0,0,1
44:13.1,715,703,1023,709,766,0,0,1
44:13.2,739,707,636,719,707,0,0,1
44:13.2,693,720,760,720,825,0,0,1
44:13.2,771,771,731,699,700,0,0,1
44:13.2,614,729,1023,742,811,0,0,1
44:13.2,622,750,707,725,743,0,0,1
44:13.3,719,758,1023,754,729,0,0,1
44:13.3,753,717,941,682,692,1,0,1
44:13.3,911,772,734,814,889,1,0,1
44:13.3,698,749,606,762,751,1,0,1
44:13.3,743,706,1023,667,771,1,0,0
44:13.4,788,763,779,764,722,1,0,0
44:13.4,704,754,756,675,649,1,0,0
44:13.4,780,750,1023,686,693,1,1,0
44:13.4,732,765,606,716,703,1,1,0
44:13.5,807,763,586,660,699,1,1,0
44:13.5,700,729,838,722,757,1,1,0
44:13.5,830,744,918,714,736,1,1,0
44:13.5,798,734,723,747,738,1,1,0
44:13.5,687,716,1023,711,674,1,1,0
44:13.6,692,745,716,720,718,1,1,0
44:13.6,803,786,667,729,765,1,1,0
44:13.6,691,738,691,742,745,1,1,0
44:13.6,876,728,683,719,705,1,1,0
44:13.6,735,755,692,746,749,1,1,0
44:13.6,763,761,808,732,759,1,1,0
44:13.6,643,775,993,704,835,1,1,0
44:13.7,783,746,837,723,741,1,1,0
44:13.7,751,766,573,737,759,1,1,0
44:13.7,742,749,731,728,750,1,1,0
44:13.7,719,746,866,699,724,1,1,0
44:13.7,755,749,627,713,714,1,1,0
44:13.8,694,764,567,755,764,1,1,0
44:13.8,786,739,807,711,734,1,1,0
44:13.8,730,723,898,721,736,1,1,0
44:13.8,670,754,669,734,820,1,1,0
44:13.8,658,750,661,710,777,1,1,0
44:13.9,819,755,711,710,799,1,1,0
44:13.9,843,765,610,730,764,1,1,0
44:13.9,795,773,805,752,760,1,1,0
44:13.9,723,743,658,735,779,1,1,0
44:13.9,770,743,816,713,732,1,1,0
44:13.9,738,734,632,683,734,1,1,0
44:13.9,717,754,703,715,762,1,1,0
44:14.0,787,754,674,707,743,1,1,0
44:14.0,827,724,853,699,743,1,1,0
44:14.1,840,729,699,716,741,1,1,0
44:14.1,751,736,688,726,723,1,1,0
44:14.1,724,743,684,703,723,1,1,0
44:14.1,746,753,530,707,731,1,1,0
44:14.1,760,738,707,732,742,1,1,0
44:14.2,858,727,657,715,729,1,1,0
44:14.2,835,715,968,735,722,1,1,0
44:14.2,761,754,671,719,742,1,1,0
44:14.2,775,739,594,722,743,1,1,0
44:14.3,858,755,707,739,757,1,1,0
44:14.3,704,759,689,720,740,1,1,0
44:14.3,777,740,931,732,764,1,1,0
44:14.3,704,735,729,709,711,1,1,0
44:14.3,753,748,731,711,740,1,1,0
44:14.3,739,760,711,745,759,1,1,0
44:14.3,713,745,735,752,799,1,1,0
44:14.4,745,719,929,723,725,1,1,0
44:14.4,763,747,798,732,752,1,1,0
44:14.4,730,731,682,739,758,1,1,0
44:14.4,675,741,903,723,731,1,1,0
44:14.4,811,766,719,723,755,1,1,0
44:14.5,757,739,664,718,737,1,1,0
44:14.5,643,724,560,701,760,1,1,0
44:14.5,800,750,656,709,755,1,1,0
44:14.5,756,779,625,727,752,1,1,0
44:14.5,739,769,738,726,740,1,1,0
44:14.6,763,726,791,702,784,1,1,0
44:14.6,766,739,748,683,771,1,1,0
44:14.6,707,754,560,709,767,1,1,0
44:14.6,744,747,827,743,763,1,1,0
44:14.7,811,754,714,715,747,1,1,0
44:14.7,667,739,1023,695,688,1,1,0
44:14.7,753,743,832,712,751,1,1,0
44:14.7,824,755,908,735,824,1,1,0
44:14.7,754,735,824,743,744,1,1,0
44:14.8,711,737,795,705,714,1,1,0
44:14.8,746,748,655,715,759,1,1,0
44:14.8,715,777,699,719,747,1,1,0
44:14.8,763,807,747,722,771,1,1,0
44:14.8,755,727,975,723,715,1,1,0
44:14.9,755,754,880,721,760,1,1,0
44:14.9,739,772,691,739,731,1,1,0
44:14.9,762,755,761,726,740,1,1,0
44:14.9,749,751,697,744,719,1,1,0
44:14.9,771,747,683,736,727,1,1,0
44:14.9,733,774,588,737,759,1,1,0
44:14.9,783,746,797,716,748,1,1,0
44:15.0,724,761,855,747,775,1,1,0
44:15.0,711,739,581,699,756,1,1,0
44:15.0,938,759,828,743,784,1,1,0
44:15.0,728,735,827,728,743,1,1,0
44:15.1,810,755,667,718,791,1,1,0
44:15.1,795,762,601,746,755,1,1,0
44:15.1,715,750,659,737,801,1,1,0
44:15.1,727,748,691,711,742,1,1,0
44:15.1,750,730,730,714,752,1,1,0
44:15.2,747,738,667,678,798,1,1,0
44:15.2,666,740,803,737,751,1,1,0
44:15.2,841,749,823,720,751,1,1,0
44:15.2,731,716,1023,691,710,1,1,0
44:15.2,792,778,592,756,762,1,1,0
44:15.3,774,740,659,754,744,1,1,0
44:15.3,763,738,880,703,754,1,1,0
44:15.3,737,747,687,712,724,1,1,0
44:15.3,763,742,719,723,735,1,1,0
44:15.4,667,737,700,701,733,1,1,0
44:15.4,731,709,889,651,710,1,1,0
44:15.4,759,747,1023,726,740,1,1,0
44:15.4,762,746,630,739,742,1,1,0
44:15.4,721,740,827,748,761,1,1,0
44:15.5,736,745,789,724,763,1,1,0
44:15.5,796,723,974,712,756,1,1,0
44:15.5,668,729,708,715,718,1,1,0
44:15.5,745,731,841,692,748,1,1,0
44:15.5,766,747,608,724,724,1,1,0
44:15.6,910,749,852,726,803,1,1,0
44:15.6,743,742,793,723,714,1,1,0
44:15.6,746,717,1023,721,782,1,1,0
44:15.6,749,755,713,752,759,1,1,0
44:15.7,735,683,1023,688,725,1,1,0
44:15.7,792,715,1023,707,740,1,1,0
44:15.7,667,702,872,703,726,1,1,0
44:15.7,775,736,447,719,762,1,1,0
44:15.7,743,749,776,737,693,1,1,0
44:15.7,779,760,739,743,750,1,1,0
44:15.7,747,755,751,730,794,1,1,0
44:15.8,694,731,1023,708,700,1,1,0
44:15.8,748,722,708,693,740,1,1,0
44:15.8,780,750,828,732,752,1,1,0
44:15.8,736,754,781,737,751,1,1,0
44:15.8,820,746,707,718,771,1,1,0
44:15.9,785,732,599,716,772,1,1,0
44:15.9,765,738,818,718,731,1,1,0
44:15.9,769,749,585,663,723,1,1,0
44:15.9,752,746,653,735,756,1,1,0
44:15.9,757,731,739,718,803,1,1,0
44:15.9,729,756,789,727,716,1,1,0
44:15.9,760,744,799,738,786,1,1,0
44:16.0,771,759,461,747,738,1,1,0
44:16.0,766,753,617,731,738,1,1,0
44:16.1,758,739,731,679,808,1,1,0
44:16.1,728,718,1023,731,734,1,1,0
44:16.1,758,754,663,729,747,1,1,0
44:16.1,760,738,948,731,761,1,1,0
44:16.1,764,736,979,727,725,1,1,0
44:16.2,760,730,757,751,755,1,1,0
44:16.2,748,730,1023,714,739,1,1,0
44:16.2,827,749,559,732,766,1,1,0
44:16.2,783,732,611,711,721,1,1,0
44:16.2,827,744,555,698,712,1,1,0
44:16.3,756,747,602,724,742,1,1,0
44:16.3,803,750,918,771,728,1,1,0
44:16.3,757,755,618,734,776,1,1,0
44:16.3,737,725,955,723,806,1,1,0
44:16.3,751,742,821,722,724,1,1,0
44:16.4,766,727,771,706,733,1,1,0
44:16.4,735,725,883,712,736,1,1,0
44:16.4,736,745,703,731,811,1,1,0
44:16.4,772,729,635,724,729,1,1,0
44:16.5,759,726,562,742,739,1,1,0
44:16.5,755,759,715,732,759,1,1,0
44:16.5,748,757,650,731,779,1,1,0
44:16.5,751,749,700,745,771,1,1,0
44:16.5,786,755,733,732,818,1,1,0
44:16.5,771,727,635,727,738,1,1,0
44:16.5,734,726,1023,722,747,1,1,0
44:16.6,772,757,741,744,814,1,1,0
44:16.6,754,766,671,720,749,1,1,0
44:16.6,739,715,975,684,735,1,1,0
44:16.6,754,743,769,752,766,1,1,0
44:16.6,746,753,579,712,758,1,1,0
44:16.7,819,751,651,711,761,1,1,0
44:16.7,788,752,709,749,778,1,1,0
44:16.7,752,727,1023,685,667,1,1,0
44:16.7,743,750,713,739,715,1,1,0
44:16.7,757,752,704,733,846,1,1,0
44:16.8,758,747,719,707,704,1,1,0
44:16.8,753,735,805,713,746,1,1,0
44:16.8,736,720,656,719,827,1,1,0
44:16.8,757,730,980,717,676,1,1,0
44:16.9,747,728,710,723,771,1,1,0
44:16.9,755,734,876,740,778,1,1,0
44:16.9,731,760,785,740,753,1,1,0
44:16.9,806,749,576,740,787,1,1,0
44:16.9,778,752,659,712,675,1,1,0
44:16.9,810,749,619,742,739,1,1,0
44:16.9,751,740,1023,733,781,1,1,0
44:17.0,760,760,677,763,791,1,1,0
44:17.0,770,743,685,738,755,1,1,0
44:17.0,813,748,823,739,779,1,1,0
44:17.1,764,733,695,715,727,1,1,0
44:17.1,770,747,557,712,758,1,1,0
44:17.1,795,740,507,731,781,1,1,0
44:17.1,726,755,647,725,785,1,1,0
44:17.2,771,755,627,727,689,1,1,0
44:17.2,754,736,688,735,748,1,1,0
44:17.2,762,755,667,748,752,1,1,0
44:17.2,717,726,754,670,755,1,1,0
44:17.2,763,752,657,754,761,1,1,0
44:17.3,775,737,643,728,755,1,1,0
44:17.3,771,747,669,729,803,1,1,0
44:17.3,766,738,735,706,775,1,1,0
44:17.3,748,725,963,696,795,1,1,0
44:17.3,772,740,719,718,754,1,1,0
44:17.3,771,747,399,769,769,1,1,0
44:17.3,739,724,789,722,761,1,1,0
44:17.4,751,750,758,728,753,1,1,0
44:17.4,758,739,668,731,752,1,1,0
44:17.4,705,725,740,723,772,1,1,0
44:17.4,755,761,635,707,752,1,1,0
44:17.4,763,748,681,729,762,1,1,0
44:17.5,719,712,1023,714,776,1,1,0
44:17.5,757,740,736,745,841,1,1,0
44:17.5,889,739,819,759,717,1,1,0
44:17.5,706,742,708,738,699,1,1,0
44:17.5,764,742,884,692,760,1,1,0
44:17.6,757,743,851,738,771,1,1,0
44:17.6,726,740,719,766,757,1,1,0
44:17.6,772,747,742,733,752,1,1,0
44:17.6,751,747,723,758,763,1,1,0
44:17.7,751,739,644,720,743,1,1,0
44:17.7,743,731,716,707,780,1,1,0
44:17.7,741,747,732,764,764,1,1,0
44:17.7,787,755,627,738,731,1,1,0
44:17.7,757,744,669,727,779,1,1,0
44:17.8,766,758,739,749,767,1,1,0
44:17.8,771,747,711,763,768,1,1,0
44:17.8,770,759,657,753,787,1,1,0
44:17.8,755,746,635,733,763,1,1,0
44:17.8,757,729,654,752,790,1,1,0
44:17.9,735,721,663,728,703,1,1,0
44:17.9,765,755,750,729,763,1,1,0
44:17.9,760,739,591,703,759,1,1,0
44:17.9,742,736,804,727,811,1,1,0
44:17.9,773,738,775,731,787,1,1,0
44:17.9,764,740,723,694,734,1,1,0
44:17.9,740,735,485,711,720,1,1,0
44:18.0,763,761,764,732,766,1,1,0
44:18.0,751,732,675,715,750,1,1,0
44:18.0,740,737,707,721,741,1,1,0
44:18.0,747,739,742,746,708,1,1,0
44:18.1,779,739,678,734,772,1,1,0
44:18.1,772,748,647,746,759,1,1,0
44:18.1,771,735,623,715,783,1,1,0
44:18.1,795,747,740,708,745,1,1,0
44:18.1,736,749,657,734,747,1,1,0
44:18.2,755,721,744,747,764,1,1,0
44:18.2,749,738,625,750,775,1,1,0
44:18.2,732,700,735,747,743,1,1,0
44:18.2,703,738,1023,717,757,1,1,0
44:18.2,800,751,740,733,763,1,1,0
44:18.3,764,754,455,727,740,1,1,0
44:18.3,754,759,618,739,859,1,1,0
44:18.3,808,729,691,749,757,1,1,0
44:18.3,769,735,669,734,742,1,1,0
44:18.4,783,754,615,712,762,1,1,0
44:18.4,774,739,844,742,763,1,1,0
44:18.4,721,718,787,714,779,1,1,0
44:18.4,771,746,708,718,756,1,1,0
44:18.4,760,749,712,729,776,1,1,0
44:18.5,767,755,603,722,629,1,1,0
44:18.5,760,739,740,738,760,1,1,0
44:18.5,744,750,666,758,787,1,1,0
44:18.5,757,755,695,744,744,1,1,0
44:18.5,747,747,729,741,816,1,1,0
44:18.6,775,746,659,732,740,1,1,0
44:18.6,750,754,709,725,755,1,1,0
44:18.6,730,747,691,740,704,1,1,0
44:18.6,775,749,519,731,772,1,1,0
44:18.7,760,732,797,720,762,1,1,0
44:18.7,731,725,718,739,775,1,1,0
44:18.7,772,754,661,742,770,1,1,0
44:18.7,761,760,799,720,755,1,1,0
44:18.7,766,715,963,726,784,1,1,0
44:18.8,776,742,733,721,827,1,1,0
44:18.8,756,739,741,735,739,1,1,0
44:18.8,736,743,655,726,764,1,1,0
44:18.8,770,763,686,725,775,1,1,0
44:18.8,744,718,712,743,762,1,1,0
44:18.8,754,748,664,739,754,1,1,0
44:18.8,755,742,680,745,777,1,1,0
44:18.9,763,754,791,724,763,1,1,0
44:18.9,752,745,710,735,737,1,1,0
44:18.9,766,729,851,679,736,1,1,0
44:18.9,752,747,803,710,720,1,1,0
44:18.9,800,739,868,715,775,1,1,0
44:18.9,788,721,789,732,765,1,1,0
44:18.9,762,734,770,718,748,1,1,0
44:19.0,703,736,740,715,715,1,1,0
44:19.0,746,758,585,755,823,1,1,0
44:19.1,758,701,670,754,790,1,1,0
44:19.1,751,723,739,737,744,1,1,0
44:19.1,744,759,694,740,783,1,1,0
44:19.1,760,752,733,733,771,1,1,0
44:19.1,787,739,705,738,848,1,1,0
44:19.2,779,712,731,721,811,1,1,0
44:19.2,780,737,660,759,783,1,1,0
44:19.2,712,733,655,691,748,1,1,0
44:19.2,748,731,740,737,747,1,1,0
44:19.2,738,747,788,748,795,1,1,0
44:19.3,747,733,754,711,755,1,1,0
44:19.3,739,719,1023,732,749,1,1,0
44:19.3,803,738,693,734,756,1,1,0
44:19.3,747,722,761,737,785,1,1,0
44:19.4,762,743,823,731,763,1,1,0
44:19.4,713,730,611,719,745,1,1,0
44:19.4,736,739,874,715,743,1,1,0
44:19.4,783,739,759,763,788,1,1,0
44:19.4,739,752,801,744,743,1,1,0
44:19.5,802,748,748,700,763,1,1,0
44:19.5,775,723,746,699,740,1,1,0
44:19.5,754,738,603,745,732,1,1,0
44:19.5,753,763,763,757,760,1,1,0
44:19.5,882,777,780,755,780,1,1,0
44:19.5,774,726,604,732,749,1,1,0
44:19.5,719,711,737,696,729,1,1,0
44:19.6,695,716,756,699,730,1,1,0
44:19.6,716,775,679,750,713,1,1,0
44:19.6,756,744,760,723,751,1,1,0
44:19.6,858,723,715,736,790,1,1,0
44:19.6,810,734,678,876,804,1,1,0
44:19.7,722,715,673,714,750,1,1,0
44:19.7,678,724,702,727,773,1,1,0
44:19.7,735,749,711,733,791,1,1,0
44:19.7,783,761,725,785,814,1,1,0
44:19.7,797,735,737,763,759,1,1,0
44:19.8,798,755,715,739,800,1,1,0
44:19.8,751,716,619,574,731,1,1,0
44:19.8,691,748,770,787,777,1,1,0
44:19.8,766,739,746,779,757,1,1,0
44:19.9,752,739,710,700,732,1,1,0
44:19.9,797,745,727,723,763,1,1,0
44:19.9,751,795,714,703,742,1,0,0
44:19.9,741,763,749,771,759,1,0,1
44:19.9,771,736,713,777,762,1,0,1
44:19.9,782,714,695,751,775,1,0,1
44:19.9,761,736,643,718,754,1,0,1
44:20.0,747,730,717,698,755,1,0,1
44:20.0,743,731,603,664,777,1,0,1
44:20.1,729,747,667,718,787,1,0,1
44:20.1,735,758,730,715,763,1,0,1
44:20.1,776,752,711,756,772,1,0,1
44:20.1,776,727,690,773,812,1,0,1
44:20.1,781,758,707,794,758,1,0,1
44:20.2,776,751,659,731,776,1,0,1
44:20.2,915,776,808,794,801,1,0,1
44:20.2,703,717,705,715,743,1,0,1
44:20.2,763,748,689,784,776,1,0,1
44:20.2,749,734,697,772,772,1,0,1
44:20.2,712,691,498,686,752,1,0,1
44:20.2,782,723,735,731,746,1,0,1
44:20.3,795,726,775,744,835,1,0,1
44:20.3,743,739,814,735,754,1,0,1
44:20.3,791,743,711,732,803,1,0,1
44:20.3,782,746,697,678,780,1,0,1
44:20.3,898,793,718,746,823,1,0,1
44:20.4,793,748,554,705,739,1,0,1
44:20.4,787,715,690,709,776,1,0,1
44:20.4,707,723,687,739,808,1,0,1
44:20.4,783,712,722,731,807,1,0,1
44:20.4,781,740,675,733,763,1,0,1
44:20.5,776,743,751,731,769,1,0,1
44:20.5,761,742,721,739,779,1,0,1
44:20.5,779,746,705,761,739,1,0,1
44:20.5,717,739,691,721,770,1,0,1
44:20.6,723,699,690,746,777,1,0,1
44:20.6,723,716,931,721,739,1,0,1
44:20.6,771,739,780,742,783,1,0,1
44:20.6,830,745,726,733,773,1,0,1
44:20.6,743,719,655,739,781,1,0,1
44:20.7,765,727,721,770,808,1,0,1
44:20.7,755,723,686,720,791,1,0,1
44:20.7,761,732,491,728,737,1,0,1
44:20.7,746,715,703,737,840,1,0,1
44:20.7,760,740,775,732,743,1,0,1
44:20.8,795,710,638,724,779,1,0,1
44:20.8,787,750,738,740,797,1,0,1
44:20.8,761,720,596,739,775,1,0,1
44:20.8,664,655,375,667,839,1,0,1
44:20.9,796,759,807,771,755,1,0,1
44:20.9,763,735,688,735,785,1,0,1
44:20.9,728,712,638,741,771,1,0,1
44:20.9,747,708,747,746,801,1,0,1
44:20.9,801,731,721,746,794,1,0,1
44:20.9,780,760,726,819,799,1,0,1
44:20.9,791,749,656,744,808,1,0,1
44:20.9,752,716,758,758,775,1,0,1
44:20.9,827,758,748,727,770,1,0,1
44:20.9,758,730,687,719,822,1,0,1
44:21.0,786,739,641,879,803,1,0,1
44:21.0,761,730,739,751,868,1,0,1
44:21.1,777,728,650,737,765,1,0,1
44:21.1,796,744,769,757,803,1,0,1
44:21.1,781,731,704,764,779,1,0,1
44:21.1,765,750,706,734,755,1,0,1
44:21.1,804,748,749,771,838,1,0,1
44:21.2,767,742,697,751,781,1,0,1
44:21.2,774,740,685,734,752,1,0,1
44:21.2,755,739,715,748,750,1,0,1
44:21.2,774,736,562,740,771,1,0,1
44:21.3,771,723,712,740,781,1,0,1
44:21.3,826,742,683,755,762,1,0,1
44:21.3,708,738,752,731,739,1,0,1
44:21.3,751,732,725,759,779,1,0,1
44:21.3,774,729,696,729,765,1,0,1
44:21.4,793,750,712,765,770,1,0,1
44:21.4,789,739,712,771,755,1,0,1
44:21.4,740,743,725,723,758,1,0,1
44:21.4,795,738,677,749,790,1,0,1
44:21.4,786,739,689,755,742,1,0,1
44:21.5,748,740,694,755,778,1,0,1
44:21.5,750,740,716,725,742,1,0,1
44:21.5,770,747,742,758,783,1,0,1
44:21.5,752,738,729,747,926,1,0,1
44:21.6,740,734,647,723,763,1,0,1
44:21.6,745,727,651,762,745,1,0,1
44:21.6,762,731,687,739,791,1,0,1
44:21.6,763,743,572,733,792,1,0,1
44:21.6,751,746,636,752,774,1,0,1
44:21.6,797,711,683,739,779,1,0,1
44:21.6,783,748,716,760,795,1,0,1
44:21.7,779,727,717,731,865,1,0,1
44:21.7,779,742,679,753,726,1,0,1
44:21.7,756,739,700,758,778,1,0,1
44:21.7,772,734,684,755,788,1,0,1
44:21.7,756,740,770,733,763,1,0,1
44:21.8,799,744,722,745,751,1,0,1
44:21.8,756,732,695,750,774,1,0,1
44:21.8,803,734,726,774,818,1,0,1
44:21.8,751,795,838,778,814,1,0,1
44:21.8,792,733,624,749,875,1,0,1
44:21.9,787,751,703,733,783,1,0,1
44:21.9,740,735,736,725,736,1,0,1
44:21.9,743,733,705,746,760,1,0,1
44:21.9,770,746,759,770,755,1,0,1
44:21.9,774,731,659,693,762,1,0,1
44:21.9,755,725,697,754,753,1,0,1
44:21.9,759,726,686,778,792,1,0,1
44:22.0,787,770,668,780,755,1,0,1
44:22.0,771,741,696,755,786,1,0,1
44:22.1,764,725,691,785,784,1,0,1
44:22.1,799,750,771,779,814,1,0,1
44:22.1,780,731,727,762,795,1,0,1
44:22.1,765,742,738,765,771,1,0,1
44:22.1,779,742,720,779,828,1,0,1
44:22.2,764,741,836,764,779,1,0,1
44:22.2,731,719,600,745,745,1,0,1
44:22.2,803,739,691,741,787,1,0,1
44:22.2,747,731,739,749,809,1,0,1
44:22.2,719,713,737,698,779,1,0,1
44:22.3,755,733,741,760,730,1,0,1
44:22.3,773,739,706,741,761,1,0,1
44:22.3,740,723,717,735,753,1,0,1
44:22.3,771,737,678,743,757,1,0,1
44:22.4,759,724,587,725,760,1,0,1
44:22.4,759,730,734,794,825,1,0,1
44:22.4,717,728,736,761,762,1,0,1
44:22.4,755,739,782,750,795,1,0,1
44:22.4,759,737,657,737,785,1,0,1
44:22.4,787,780,716,755,791,1,0,1
44:22.4,755,747,744,783,787,1,0,1
44:22.5,734,746,711,761,771,1,0,1
44:22.5,738,747,492,735,755,1,0,1
44:22.5,760,735,711,756,783,1,0,1
44:22.5,730,722,672,752,741,1,0,1
44:22.5,794,725,711,787,795,1,0,1
44:22.6,687,747,712,754,755,1,0,1
44:22.6,783,720,678,743,835,1,0,1
44:22.6,816,743,719,741,789,1,0,1
44:22.6,759,738,715,755,763,1,0,1
44:22.7,755,734,755,736,797,1,0,1
44:22.7,751,742,715,771,761,1,0,1
44:22.7,779,739,748,764,804,1,0,1
44:22.7,767,736,725,769,808,1,0,1
44:22.7,747,739,722,702,754,1,0,1
44:22.8,746,744,683,735,771,1,0,1
44:22.8,793,743,734,740,794,1,0,1
44:22.8,745,734,731,723,784,1,0,1
44:22.8,746,743,636,742,701,1,0,1
44:22.8,743,727,595,735,766,1,0,1
44:22.9,775,723,680,744,795,1,0,1
44:22.9,731,718,680,726,751,1,0,1
44:22.9,755,741,715,763,777,1,0,1
44:22.9,827,752,788,755,620,1,0,1
44:22.9,746,722,723,731,780,1,0,1
44:22.9,754,747,724,752,787,1,0,1
44:22.9,725,725,725,715,691,1,0,1
44:23.0,765,742,534,734,772,1,0,1
44:23.0,707,729,723,751,751,1,0,1
44:23.1,750,755,721,803,771,1,0,1
44:23.1,787,754,804,811,832,1,0,1
44:23.1,732,729,639,727,774,1,0,1
44:23.1,757,746,715,764,766,1,0,1
44:23.1,751,735,696,732,751,1,0,1
44:23.1,755,730,713,753,773,1,0,1
44:23.1,791,755,726,763,769,1,0,1
44:23.2,727,732,705,759,751,1,0,1
44:23.2,804,744,753,773,755,1,0,1
44:23.2,758,739,727,767,779,1,0,1
44:23.2,744,728,719,751,764,1,0,1
44:23.2,751,727,674,744,758,1,0,1
44:23.3,697,733,737,756,742,1,0,1
44:23.3,766,738,690,761,784,1,0,1
44:23.3,760,747,712,779,778,1,0,1
44:23.3,751,729,712,783,784,1,0,1
44:23.3,723,735,706,760,749,1,0,1
44:23.4,755,730,739,774,795,1,0,1
44:23.4,746,730,700,755,761,1,0,1
44:23.4,750,736,706,779,795,1,0,1
44:23.4,769,740,643,735,786,1,0,1
44:23.5,771,743,708,776,768,1,0,1
44:23.5,746,738,726,739,771,1,0,1
44:23.5,749,745,723,776,794,1,0,1
44:23.5,755,746,583,758,819,1,0,1
44:23.5,737,737,719,757,674,1,0,1
44:23.6,714,736,719,766,781,1,0,1
44:23.6,749,735,757,763,763,1,0,1
44:23.6,746,738,723,744,772,1,0,1
44:23.6,733,733,721,759,745,1,0,1
44:23.6,766,739,730,759,767,1,0,1
44:23.7,798,743,749,759,804,1,0,1
44:23.7,724,746,769,746,762,1,0,1
44:23.7,776,745,747,757,804,1,0,1
44:23.7,754,762,742,764,757,1,0,1
44:23.8,752,738,819,786,782,1,0,1
44:23.8,762,747,712,758,738,1,0,1
44:23.8,685,726,715,760,767,1,0,1
44:23.8,757,725,732,771,750,1,0,1
44:23.8,735,732,714,755,774,1,0,1
44:23.9,739,721,701,779,778,1,0,1
44:23.9,774,739,758,748,731,1,0,1
44:23.9,743,740,707,758,775,1,0,1
44:23.9,774,723,734,766,779,1,0,1
44:23.9,758,752,717,743,783,1,0,1
44:23.9,742,739,723,758,757,1,0,1
44:23.9,719,740,736,788,765,1,0,1
44:23.9,748,733,731,753,849,1,0,1
44:23.9,714,737,772,799,694,1,0,1
44:23.9,747,741,723,774,753,1,0,1
44:24.0,754,743,710,783,756,1,0,1
44:24.0,754,741,733,797,779,1,0,1
44:24.1,743,742,733,794,765,1,0,1
44:24.1,747,753,809,743,748,1,0,1
